0.000000
0.000000
0.000000
0.000000
0.000000
0.000000
0.000000
0.000000
0.000000
0.000000
0.000000
0.000000
0.000000
0.000000
0.000000
0.000000
0.000000
0.000000
0.000000
0.000000
0.000000
0.000000
0.000000
0.000000
0.000000
0.000000
0.000000
0.000000
0.000000
0.000000
0.000000
0.000000
0.000000
0.000000
0.000000
0.000000
0.000000
0.000000
0.000000
0.000000
0.000000
0.000000
0.000000
0.000000
0.000000
0.000000
0.000000
0.000000
0.000000
0.000000
0.000000
0.000000
0.000000
0.000000
0.000000
0.000000
0.000000
0.000000
0.000000
0.000000
0.000000
0.000000
0.000000
0.000000
0.000000
0.000000
0.000000
0.000000
0.000000
0.000000
0.000000
0.000000
0.000000
0.000000
0.000000
0.000000
0.000000
0.000000
0.000000
0.000000
0.000000
0.000000
0.000000
0.000000
0.000000
0.000000
0.000000
0.000000
0.000000
0.000000
0.000000
0.000000
0.000000
0.000000
0.000000
0.000000
0.000000
0.000000
0.000000
0.000000
0.000000
0.000000
0.000000
0.000000
0.000000
0.000000
0.000000
0.000000
0.000000
0.000000
0.000000
0.000000
0.000000
0.000000
0.000000
0.000000
0.000000
0.000000
0.000000
0.000000
0.000000
0.000000
0.000000
0.000000
0.000000
0.000000
0.000000
0.000000
0.000000
0.000000
0.000000
0.000000
0.000000
0.000000
0.000000
0.000000
0.000000
0.000000
0.000000
0.000000
0.000000
0.000000
0.000000
0.000000
0.000000
0.000000
0.000000
0.000000
0.000000
0.000000
0.000000
0.000000
0.000000
0.000000
0.000000
0.000000
0.000000
0.000000
0.000000
0.000000
0.000000
0.000000
0.000000
0.000000
0.000000
0.000000
0.000000
0.000000
0.000000
0.000000
0.000000
0.000000
0.000000
0.000000
0.000000
0.000000
0.000000
0.000000
0.000000
0.000000
0.000000
0.000000
0.000000
0.000000
0.000000
0.000000
0.000000
0.000000
0.000000
0.000000
0.000000
0.000000
0.000000
0.000000
0.000000
0.000000
0.000000
0.000000
0.000000
0.000000
0.000000
0.000000
0.000000
0.000000
0.000000
0.000000
0.000000
0.000000
0.000000
0.000000
0.000000
0.000000
0.000000
0.000000
0.000000
0.000000
0.000000
0.000000
0.000000
0.000000
0.000000
0.000000
0.000000
0.000000
0.000000
0.000000
0.000000
0.000000
0.000000
0.000000
0.000000
0.000000
0.000000
0.000000
0.000000
0.000000
0.000000
0.000000
0.000000
0.000000
0.000000
0.000000
0.000000
0.000000
0.000000
0.000000
0.000000
0.000000
0.000000
0.000000
0.000000
0.000000
0.000000
0.000000
0.000000
0.000000
0.000000
0.000000
0.000000
0.000000
0.000000
0.000000
0.000000
0.000000
0.000000
0.000000
0.000000
0.000000
0.000000
0.000000
0.000000
0.000000
0.000000
0.000000
0.000000
0.000000
0.000000
0.000000
0.000000
0.000000
0.000000
0.000000
0.000000
0.000000
0.000000
0.000000
0.000000
0.000000
0.000000
0.000000
0.000000
0.000000
0.000000
0.000000
0.000000
0.000000
0.000000
0.000000
0.000000
0.000000
0.000000
0.000000
0.000000
0.000000
0.000000
0.000000
0.000000
0.000000
0.000000
0.000000
0.000000
0.000000
0.000000
0.000000
0.000000
0.000000
0.000000
0.000000
0.000000
0.000000
0.000000
0.000000
0.000000
0.000000
0.000000
0.000000
0.000000
0.000000
0.000000
0.000000
0.000000
0.000000
0.000000
0.000000
0.000000
0.000000
0.000000
0.000000
0.000000
0.000000
0.000000
0.000000
0.000000
0.000000
0.000000
0.000000
0.000000
0.000000
0.000000
0.000000
0.000000
0.000000
0.000000
0.000000
0.000000
0.000000
0.000000
0.000000
0.000000
0.000000
0.000000
0.000000
0.000000
0.000000
0.000000
0.000000
0.000000
0.000000
0.000000
0.000000
0.000000
0.000000
0.000000
0.000000
0.000000
0.000000
0.000000
0.000000
0.000000
0.000000
0.000000
0.000000
0.000000
0.000000
0.000000
0.000000
0.000000
0.000000
0.000000
0.000000
0.000000
0.000000
0.000000
0.000000
0.000000
0.000000
0.000000
0.000000
0.000000
0.000000
0.000000
0.000000
0.000000
0.000000
0.000000
0.000000
0.000000
0.000000
0.000000
0.000000
0.000000
0.000000
0.000000
0.000000
0.000000
0.000000
0.000000
0.000000
0.000000
0.000000
0.000000
0.000000
0.000000
0.000000
0.000000
0.000000
0.000000
0.000000
0.000000
0.000000
0.000000
0.000000
0.000000
0.000000
0.000000
0.000000
0.000000
0.000000
0.000000
0.000000
0.000000
0.000000
0.000000
0.000000
0.000000
0.000000
0.000000
0.000000
0.000000
0.000000
0.000000
0.000000
0.000000
0.000000
0.000000
0.000000
0.000000
0.000000
0.000000
0.000000
0.000000
0.000000
0.000000
0.000000
0.000000
0.000000
0.000000
0.000000
0.000000
0.000000
0.000000
0.000000
0.000000
0.000000
0.000000
0.000000
0.000000
0.000000
0.000000
0.000000
0.000000
0.000000
0.000000
0.000000
0.000000
0.000000
0.000000
0.000000
0.000000
0.000000
0.000000
0.000000
0.000000
0.000000
0.000000
0.000000
0.000000
0.000000
0.000000
0.000000
0.000000
0.000000
0.000000
0.000000
0.000000
0.000000
0.000000
0.000000
0.000000
0.000000
0.000000
0.000000
0.000000
0.000000
0.000000
0.000000
0.000000
0.000000
0.000000
0.000000
0.000000
0.000000
0.000000
0.000000
0.000000
0.000000
0.000000
0.000000
0.000000
0.000000
0.000000
0.000000
0.000000
0.000000
0.000000
0.000000
0.000000
0.000000
0.000000
0.000000
0.000000
0.000000
0.000000
0.000000
0.000000
0.000000
0.000000
0.000000
0.000000
0.000000
0.000000
0.000000
0.000000
0.000000
0.000000
0.000000
0.000000
0.000000
0.000000
0.000000
0.000000
0.000000
0.000000
0.000000
0.000000
0.000000
0.000000
0.000000
0.000000
0.000000
0.000000
0.000000
0.000000
0.000000
0.000000
0.000000
0.000000
0.000000
0.000000
0.000000
0.000000
0.000000
0.000000
0.000000
0.000000
0.000000
0.000000
0.000000
0.000000
0.000000
0.000000
0.000000
0.000000
0.000000
0.000000
0.000000
0.000000
0.000000
0.000000
0.000000
0.000000
0.000000
0.000000
0.000000
0.000000
0.000000
0.000000
0.000000
0.000000
0.000000
0.000000
0.000000
0.000000
0.000000
0.000000
0.000000
0.000000
0.000000
0.000000
0.000000
0.000000
0.000000
0.000000
0.000000
0.000000
0.000000
0.000000
0.000000
0.000000
0.000000
0.000000
0.000000
0.000000
0.000000
0.000000
0.000000
0.000000
0.000000
0.000000
0.000000
0.000000
0.000000
0.000000
0.000000
0.000000
0.000000
0.000000
0.000000
0.000000
0.000000
0.000000
0.000000
0.000000
0.000000
0.000000
0.000000
0.000000
0.000000
0.000000
0.000000
0.000000
0.000000
0.000000
0.000000
0.000000
0.000000
0.000000
0.000000
0.000000
0.000000
0.000000
0.000000
0.000000
0.000000
0.000000
0.000000
0.000000
0.000000
0.000000
0.000000
0.000000
0.000000
0.000000
0.000000
0.000000
0.000000
0.000000
0.000000
0.000000
0.000000
0.000000
0.000000
0.000000
0.000000
0.000000
0.000000
0.000000
0.000000
0.000000
0.000000
0.000000
0.000000
0.000000
0.000000
0.000000
0.000000
0.000000
0.000000
0.000000
0.000000
0.000000
0.000000
0.000000
0.000000
0.000000
0.000000
0.000000
0.000000
0.000000
0.000000
0.000000
0.000000
0.000000
0.000000
0.000000
0.000000
0.000000
0.000000
0.000000
0.000000
0.000000
0.000000
0.000000
0.000000
0.000000
0.000000
0.000000
0.000000
0.000000
0.000000
0.000000
0.000000
0.000000
0.000000
0.000000
0.000000
0.000000
0.000000
0.000000
0.000000
0.000000
0.000000
0.000000
0.000000
0.000000
0.000000
0.000000
0.000000
0.000000
0.000000
0.000000
0.000000
0.000000
0.000000
0.000000
0.000000
0.000000
0.000000
0.000000
0.000000
0.000000
0.000000
0.000000
0.000000
0.000000
0.000000
0.000000
0.000000
0.000000
0.000000
0.000000
0.000000
0.000000
0.000000
0.000000
0.000000
0.000000
0.000000
0.000000
0.000000
0.000000
0.000000
0.000000
0.000000
0.000000
0.000000
0.000000
0.000000
0.000000
0.000000
0.000000
0.000000
0.000000
0.000000
0.000000
0.000000
0.000000
0.000000
0.000000
0.000000
0.000000
0.000000
0.000000
0.000000
0.000000
0.000000
0.000000
0.000000
0.000000
0.000000
0.000000
0.000000
0.000000
0.000000
0.000000
0.000000
0.000000
0.000000
0.000000
0.000000
0.000000
0.000000
0.000000
0.000000
0.000000
0.000000
0.000000
0.000000
0.000000
0.000000
0.000000
0.000000
0.000000
0.000000
0.000000
0.000000
0.000000
0.000000
0.000000
0.000000
0.000000
0.000000
0.000000
0.000000
0.000000
0.000000
0.000000
0.000000
0.000000
0.000000
0.000000
0.000000
0.000000
0.000000
0.000000
0.000000
0.000000
0.000000
0.000000
0.000000
0.000000
0.116237
0.232222
0.347953
0.463432
0.578657
0.693630
0.808349
0.922816
1.037030
1.150990
1.264698
1.378153
1.491355
1.604304
1.716999
1.829442
1.941632
2.053569
2.165253
2.276684
2.387862
2.498787
2.609460
2.719879
2.830045
2.939958
3.049619
3.159026
3.268180
3.377082
3.485730
3.594126
3.702268
3.810158
3.917794
4.025178
4.132308
4.239186
4.345811
4.452183
4.558301
4.664167
4.769780
4.875140
4.980247
5.085101
5.189702
5.294050
5.398145
5.501987
5.605576
5.708912
5.811996
5.914826
6.017403
6.119727
6.221799
6.323617
6.425183
6.526495
6.627554
6.728361
6.828915
6.929215
7.029263
7.129057
7.228599
7.327888
7.426924
7.525706
7.624236
7.722513
7.820537
7.918308
8.015826
8.113091
8.210103
8.306862
8.403368
8.499621
8.595622
8.691369
8.786863
8.882104
8.977093
9.071828
9.166310
9.260540
9.354516
9.448240
9.541710
9.634928
9.727893
9.820604
9.913063
10.005269
10.097221
10.188921
10.280368
10.371562
10.462503
10.553191
10.643626
10.733808
10.823737
10.913413
11.002836
11.092006
11.180923
11.269587
11.357998
11.446157
11.534062
11.621714
11.709114
11.796260
11.883154
11.969794
12.056182
12.142316
12.228198
12.313826
12.399202
12.484325
12.569195
12.653811
12.738175
12.822286
12.906144
12.989749
13.073101
13.156200
13.239046
13.321639
13.403979
13.486066
13.567900
13.649481
13.730809
13.811885
13.892707
13.973276
14.053593
14.133656
14.213467
14.293024
14.372329
14.451380
14.530179
14.608724
14.687017
14.765057
14.842843
14.920377
14.997658
15.074686
15.151460
15.227982
15.304251
15.380267
15.456030
15.531540
15.606797
15.681801
15.756553
15.831051
15.905296
15.979288
16.053027
16.126514
16.199747
16.272727
16.345455
16.417929
16.490151
16.562119
16.633835
16.705297
16.776507
16.847464
16.918167
16.988618
17.058816
17.128761
17.198453
17.267891
17.337077
17.406010
17.474690
17.543117
17.611291
17.679212
17.746881
17.814296
17.881458
17.948367
18.015023
18.081427
18.147577
18.213474
18.279119
18.344510
18.409649
18.474534
18.539167
18.603546
18.667673
18.731547
18.795167
18.858535
18.921650
18.984511
19.047120
19.109476
19.171579
19.233429
19.295026
19.356370
19.417461
19.478299
19.538884
19.599216
19.659295
19.719122
19.778695
19.838015
19.897082
19.955897
20.014458
20.072767
20.130822
20.188624
20.246174
20.303471
20.360514
20.417305
20.473842
20.530127
20.586159
20.641938
20.697463
20.752736
20.807756
20.862523
20.917037
20.971298
21.025306
21.079061
21.132563
21.185812
21.238808
21.291552
21.344042
21.396279
21.448263
21.499995
21.551473
21.602698
21.653671
21.704390
21.754857
21.805070
21.855031
21.904738
21.954193
22.003395
22.052344
22.101039
22.149482
22.197672
22.245609
22.293293
22.340724
22.387901
22.434826
22.481499
22.527918
22.574084
22.619997
22.665657
22.711064
22.756218
22.801120
22.845768
22.890163
22.934306
22.978195
23.021832
23.065215
23.108346
23.151223
23.193848
23.236219
23.278338
23.320204
23.361816
23.403176
23.444283
23.485137
23.525738
23.566086
23.606181
23.646023
23.685612
23.724948
23.764031
23.802861
23.841438
23.879762
23.917833
23.955652
23.993217
24.030529
24.067589
24.104395
24.140948
24.177249
24.213296
24.249091
24.284632
24.319921
24.354957
24.389739
24.424269
24.458546
24.492570
24.526340
24.559858
24.593123
24.626135
24.658894
24.691400
24.723653
24.755653
24.787400
24.818894
24.850136
24.881124
24.911859
24.942341
24.972571
25.002547
25.032270
25.061741
25.090958
25.119923
25.148634
25.177093
25.205298
25.233251
25.260951
25.288397
25.315591
25.342532
25.369220
25.395654
25.421836
25.447765
25.473441
25.498864
25.524034
25.548951
25.573615
25.598026
25.622184
25.646090
25.669742
25.693141
25.716287
25.739181
25.761821
25.784209
25.806343
25.828224
25.849853
25.871228
25.892351
25.913221
25.933837
25.954201
25.974312
25.994169
26.013774
26.033126
26.052225
26.071071
26.089664
26.108004
26.126091
26.143925
26.161506
26.178834
26.195909
26.212731
26.229300
26.245617
26.261680
26.277490
26.293047
26.308352
26.323403
26.338202
26.352747
26.367040
26.381079
26.394866
26.408399
26.421680
26.434708
26.447483
26.460004
26.472273
26.484289
26.496052
26.507562
26.518819
26.529823
26.540574
26.551072
26.561317
26.571309
26.581048
26.590534
26.599767
26.608748
26.617475
26.625949
26.634171
26.642139
26.649854
26.657317
26.664526
26.671483
26.678187
26.684637
26.690835
26.696779
26.702471
26.707910
26.713096
26.718029
26.722708
26.727135
26.731309
26.735230
26.738898
26.742313
26.745475
26.748384
26.751040
26.753444
26.755594
26.757491
26.759135
26.760527
26.761665
26.762550
26.763183
26.763562
26.763689
26.763310
26.762175
26.760289
26.757653
26.754271
26.750147
26.745284
26.739686
26.733354
26.726294
26.718508
26.709999
26.700770
26.690826
26.680169
26.668803
26.656730
26.643955
26.630480
26.616309
26.601445
26.585892
26.569652
26.552729
26.535127
26.516848
26.497896
26.478274
26.457986
26.437034
26.415423
26.393154
26.370233
26.346662
26.322444
26.297582
26.272081
26.245942
26.219170
26.191768
26.163739
26.135086
26.105813
26.075923
26.045420
26.014305
25.982584
25.950259
25.917334
25.883811
25.849694
25.814987
25.779692
25.743813
25.707354
25.670317
25.632706
25.594524
25.555775
25.516462
25.476587
25.436155
25.395169
25.353631
25.311546
25.268917
25.225746
25.182038
25.137795
25.093020
25.047718
25.001891
24.955543
24.908677
24.861296
24.813404
24.765004
24.716098
24.666691
24.616786
24.566386
24.515495
24.464115
24.412250
24.359903
24.307078
24.253778
24.200006
24.145765
24.091059
24.035892
23.980265
23.924183
23.867649
23.810667
23.753239
23.695369
23.637060
23.578315
23.519139
23.459533
23.399502
23.339048
23.278175
23.216887
23.155186
23.093076
23.030560
22.967642
22.904324
22.840610
22.776504
22.712008
22.647127
22.581862
22.516218
22.450198
22.383806
22.317043
22.249915
22.182423
22.114572
22.046364
21.977804
21.908893
21.839636
21.770036
21.700096
21.629820
21.559210
21.488271
21.417005
21.345415
21.273505
21.201279
21.128739
21.055889
20.982732
20.909271
20.835511
20.761453
20.687102
20.612460
20.537531
20.462319
20.386826
20.311056
20.235012
20.158697
20.082115
20.005269
19.928163
19.850799
19.773181
19.695313
19.617196
19.538836
19.460235
19.381396
19.302323
19.223019
19.143488
19.063732
18.983755
18.903560
18.823151
18.742530
18.661702
18.580669
18.499435
18.418003
18.336376
18.254558
18.172551
18.090360
18.007988
17.925437
17.842711
17.759814
17.676749
17.593518
17.510126
17.426576
17.342870
17.259013
17.175007
17.090856
17.006563
16.922132
16.837565
16.752866
16.668039
16.583086
16.498011
16.412818
16.327509
16.242087
16.156557
16.070921
15.985183
15.899346
15.813414
15.727388
15.641274
15.555074
15.468792
15.382430
15.295993
15.209482
15.122903
15.036257
14.949549
14.862782
14.775958
14.689082
14.602156
14.515184
14.428169
14.341114
14.254023
14.166900
14.079746
13.992566
13.905363
13.818140
13.730901
13.643648
13.556386
13.469117
13.381844
13.294572
13.207303
13.120041
13.032788
12.945549
12.858326
12.771123
12.683943
12.596789
12.509665
12.422574
12.335520
12.248505
12.161533
12.074607
11.987730
11.900907
11.814139
11.727431
11.640786
11.554206
11.467696
11.381259
11.294897
11.208614
11.122414
11.036300
10.950275
10.864342
10.778505
10.692767
10.607132
10.521601
10.436180
10.350871
10.265677
10.180602
10.095650
10.010822
9.926124
9.841557
9.757125
9.672833
9.588682
9.504676
9.420818
9.337113
9.253562
9.170170
9.086940
9.003874
8.920977
8.838252
8.755701
8.673329
8.591137
8.509131
8.427313
8.345686
8.264254
8.183020
8.101987
8.021159
7.940538
7.860129
7.779934
7.699957
7.620201
7.540669
7.461365
7.382292
7.303454
7.224852
7.146492
7.068376
6.990507
6.912890
6.835526
6.758419
6.681573
6.604992
6.528677
6.452633
6.376863
6.301370
6.226157
6.151229
6.076587
6.002236
5.928178
5.854417
5.780957
5.707800
5.634950
5.562410
5.490183
5.418274
5.346684
5.275418
5.204478
5.133869
5.063592
4.993652
4.924052
4.854796
4.785885
4.717325
4.649117
4.581266
4.513774
4.446645
4.379883
4.313490
4.247470
4.181826
4.116562
4.051680
3.987185
3.923078
3.859365
3.796047
3.733129
3.670613
3.608503
3.546802
3.485513
3.424641
3.364187
3.304156
3.244550
3.185373
3.126629
3.068320
3.010450
2.953022
2.896039
2.839505
2.783424
2.727797
2.672629
2.617924
2.563683
2.509911
2.456611
2.403785
2.351439
2.299574
2.248194
2.197302
2.146902
2.096997
2.047590
1.998685
1.950285
1.902392
1.855012
1.808145
1.761797
1.715970
1.670668
1.625894
1.581651
1.537943
1.494772
1.452142
1.410057
1.368520
1.327534
1.287101
1.247227
1.207914
1.169164
1.130983
1.093372
1.056335
1.019875
0.983997
0.948702
0.913995
0.879878
0.846355
0.813430
0.781105
0.749383
0.718269
0.687765
0.657875
0.628602
0.599950
0.571921
0.544519
0.517747
0.491608
0.466107
0.441245
0.417027
0.393456
0.370534
0.348266
0.326655
0.305703
0.285415
0.265793
0.246841
0.228562
0.210960
0.194037
0.177797
0.162243
0.147380
0.133209
0.119734
0.106959
0.094886
0.083520
0.072863
0.062918
0.053690
0.045181
0.037395
0.030334
0.024003
0.018404
0.013541
0.009417
0.006036
0.003400
0.001513
0.000379
0.000000
0.000000
0.000000
0.000000
0.000000
0.000000
0.000000
0.000000
0.000000
0.000000
0.000000
0.000000
0.000000
0.000000
0.000000
0.000000
0.000000
0.000000
0.000000
0.000000
0.000000
0.000000
0.000000
0.000000
0.000000
0.000000
0.000000
0.000000
0.000000
0.000000
0.000000
0.000000
0.000000
0.000000
0.000000
0.000000
0.000000
0.000000
0.000000
0.000000
0.000000
0.000000
0.000000
0.000000
0.000000
0.000000
0.000000
0.000000
0.000000
0.000000
0.000000
0.000000
0.000000
0.000000
0.000000
0.000000
0.000000
0.000000
0.000000
0.000000
0.000000
0.000000
0.000000
0.000000
0.000000
0.000000
0.000000
0.000000
0.000000
0.000000
0.000000
0.000000
0.000000
0.000000
0.000000
0.000000
0.000000
0.000000
0.000000
0.000000
0.000000
0.000000
0.000000
0.000000
0.000000
0.000000
0.000000
0.000000
0.000000
0.000000
0.000000
0.000000
0.000000
0.000000
0.000000
0.000000
0.000000
0.000000
0.000000
0.000000
0.000000
0.000000
0.000000
0.000000
0.000000
0.000000
0.000000
0.000000
0.000000
0.000000
0.000000
0.000000
0.000000
0.000000
0.000000
0.000000
0.000000
0.000000
0.000000
0.000000
0.000000
0.000000
0.000000
0.000000
0.000000
0.000000
0.000000
0.000000
0.000000
0.000000
0.000000
0.000000
0.000000
0.000000
0.000000
0.000000
0.000000
0.000000
0.000000
0.000000
0.000000
0.000000
0.000000
0.000000
0.000000
0.000000
0.000000
0.000000
0.000000
0.000000
0.000000
0.000000
0.000000
0.000000
0.000000
0.000000
0.000000
0.000000
0.000000
0.000000
0.000000
0.000000
0.000000
0.000000
0.000000
0.000000
0.000000
0.000000
0.000000
0.000000
0.000000
0.000000
0.000000
0.000000
0.000000
0.000000
0.000000
0.000000
0.000000
0.000000
0.000000
0.000000
0.000000
0.000000
0.000000
0.000000
0.000000
0.000000
0.000000
0.000000
0.000000
0.000000
0.000000
0.000000
0.000000
0.000000
0.000000
0.000000
0.000000
0.000000
0.000000
0.000000
0.000000
0.000000
0.000000
0.000000
0.000000
0.000000
0.000000
0.000000
0.000000
0.000000
0.000000
0.000000
0.000000
0.000000
0.000000
0.000000
0.000000
0.000000
0.000000
0.000000
0.000000
0.000000
0.000000
0.000000
0.000000
0.000000
0.000000
0.000000
0.000000
0.000000
0.000000
0.000000
0.000000
0.000000
0.000000
0.000000
0.000000
0.000000
0.000000
0.000000
0.000000
0.000000
0.000000
0.000000
0.000000
0.000000
0.000000
0.000000
0.000000
0.000000
0.000000
0.000000
0.000000
0.000000
0.000000
0.000000
0.000000
0.000000
0.000000
0.000000
0.000000
0.000000
0.000000
0.000000
0.000000
0.000000
0.000000
0.000000
0.000000
0.000000
0.000000
0.000000
0.000000
0.000000
0.000000
0.000000
0.000000
0.000000
0.000000
0.000000
0.000000
0.000000
0.000000
0.000000
0.000000
0.000000
0.000000
0.000000
0.000000
0.000000
0.000000
0.000000
0.000000
0.000000
0.000000
0.000000
0.000000
0.000000
0.000000
0.000000
0.000000
0.000000
0.000000
0.000000
0.000000
0.000000
0.000000
0.000000
0.000000
0.000000
0.000000
0.000000
0.000000
0.000000
0.000000
0.000000
0.000000
0.000000
0.000000
0.000000
0.000000
0.000000
0.000000
0.000000
0.000000
0.000000
0.000000
0.000000
0.000000
0.000000
0.000000
0.000000
0.000000
0.000000
0.000000
0.000000
0.000000
0.000000
0.000000
0.000000
0.000000
0.000000
0.000000
0.000000
0.000000
0.000000
0.000000
0.000000
0.000000
0.000000
0.000000
0.000000
0.000000
0.000000
0.000000
0.000000
0.000000
0.000000
0.000000
0.000000
0.000000
0.000000
0.000000
0.000000
0.000000
0.000000
0.000000
0.000000
0.000000
0.000000
0.000000
0.000000
0.000000
0.000000
0.000000
0.000000
0.000000
0.000000
0.000000
0.000000
0.000000
0.000000
0.000000
0.000000
0.000000
0.000000
0.000000
0.000000
0.000000
0.000000
0.000000
0.000000
0.000000
0.000000
0.000000
0.000000
0.000000
0.000000
0.000000
0.000000
0.000000
0.000000
0.000000
0.000000
0.000000
0.000000
0.000000
0.000000
0.000000
0.000000
0.000000
0.000000
0.000000
0.000000
0.000000
0.000000
0.000000
0.000000
0.000000
0.000000
0.000000
0.000000
0.000000
0.000000
0.000000
0.000000
0.000000
0.000000
0.000000
0.000000
0.000000
0.000000
0.000000
0.000000
0.000000
0.000000
0.000000
0.000000
0.000000
0.000000
0.000000
0.000000
0.000000
0.000000
0.000000
0.000000
0.000000
0.000000
0.000000
0.000000
0.000000
0.000000
0.000000
0.000000
0.000000
0.000000
0.000000
0.000000
0.000000
0.000000
0.000000
0.000000
0.000000
0.000000
0.000000
0.000000
0.000000
0.000000
0.000000
0.000000
0.000000
0.000000
0.000000
0.000000
0.000000
0.000000
0.000000
0.000000
0.000000
0.000000
0.000000
0.000000
0.000000
0.000000
0.000000
0.000000
0.000000
0.000000
0.000000
0.000000
0.000000
0.000000
0.000000
0.000000
0.000000
0.000000
0.000000
0.000000
0.000000
0.000000
0.000000
0.000000
0.000000
0.000000
0.000000
0.000000
0.000000
0.000000
0.000000
0.000000
0.000000
0.000000
0.000000
0.000000
0.000000
0.000000
0.000000
0.000000
0.000000
0.000000
0.000000
0.000000
0.000000
0.000000
0.000000
0.000000
0.000000
0.000000
0.000000
0.000000
0.000000
0.000000
0.000000
0.000000
0.000000
0.000000
0.000000
0.000000
0.000000
0.000000
0.000000
0.000000
0.000000
0.000000
0.000000
0.000000
0.000000
0.000000
0.000000
0.000000
0.000000
0.000000
0.000000
0.000000
0.000000
0.000000
0.000000
0.000000
0.000000
0.000000
0.000000
0.000000
0.000000
0.000000
0.000000
0.000000
0.000000
0.000000
0.000000
0.000000
0.000000
0.000000
0.000000
0.000000
0.000000
0.000000
0.000000
0.000000
0.000000
0.000000
0.000000
0.000000
0.000000
0.000000
0.000000
0.000000
0.000000
0.000000
0.000000
0.000000
0.000000
0.000000
0.000000
0.000000
0.000000
0.000000
0.000000
0.000000
0.000000
0.000000
0.000000
0.000000
0.000000
0.000000
0.000000
0.000000
0.000000
0.000000
0.000000
0.000000
0.000000
0.000000
0.000000
0.000000
0.000000
0.000000
0.000000
0.000000
0.000000
0.000000
0.000000
0.000000
0.000000
0.000000
0.000000
0.000000
0.000000
0.000000
0.000000
0.000000
0.000000
0.000000
0.000000
0.000000
0.000000
0.000000
0.000000
0.000000
0.000000
0.000000
0.000000
0.000000
0.000000
0.000000
0.000000
0.000000
0.000000
0.000000
0.000000
0.000000
0.000000
0.000000
0.000000
0.000000
0.000000
0.000000
0.000000
0.000000
0.000000
0.000000
0.000000
0.000000
0.000000
0.000000
0.000000
0.000000
0.000000
0.000000
0.000000
0.000000
0.000000
0.000000
0.000000
0.000000
0.000000
0.000000
0.000000
0.000000
0.000000
0.000000
0.000000
0.000000
0.000000
0.000000
0.000000
0.000000
0.000000
0.000000
0.000000
0.000000
0.000000
0.000000
0.000000
0.000000
0.000000
0.000000
0.000000
0.000000
0.000000
0.000000
0.000000
0.000000
0.000000
0.000000
0.000000
0.000000
0.000000
0.000000
0.000000
0.000000
0.000000
0.000000
0.000000
0.000000
0.000000
0.000000
0.000000
0.000000
0.000000
0.000000
0.000000
0.000000
0.000000
0.000000
0.000000
0.000000
0.000000
0.000000
0.000000
0.000000
0.000000
0.000000
0.000000
0.000000
0.000000
0.000000
0.000000
0.000000
0.000000
0.000000
0.000000
0.000000
0.000000
0.000000
0.000000
0.000000
0.000000
0.000000
0.000000
0.000000
0.000000
0.000000
0.000000
0.000000
0.000000
0.000000
0.000000
0.000000
0.000000
0.000000
0.000000
0.000000
0.000000
0.000000
0.000000
0.000000
0.000000
0.000000
0.000000
0.000000
0.000000
0.000000
0.000000
0.000000
0.000000
0.000000
0.000000
0.000000
0.000000
0.000000
0.000000
0.000000
0.000000
0.000000
0.000000
0.000000
0.000000
0.000000
0.000000
0.000000
0.000000
0.000000
0.000000
0.000000
0.000000
0.000000
0.000000
0.000000
0.000000
0.000000
0.000000
0.000000
0.000000
0.000000
0.000000
0.000000
0.000000
0.000000
0.000000
0.000000
0.000000
0.000000
0.000000
0.000000
0.000000
0.000000
0.000000
0.000000
0.000000
0.000000
0.000000
0.000000
0.000000
0.000000
0.000000
0.000000
0.000000
0.000000
0.000000
0.000555
0.002217
0.004982
0.008846
0.013804
0.019851
0.026984
0.035198
0.044488
0.054851
0.066282
0.078777
0.092330
0.106939
0.122598
0.139303
0.157051
0.175835
0.195653
0.216499
0.238370
0.261261
0.285167
0.310085
0.336010
0.362937
0.390862
0.419782
0.449691
0.480585
0.512459
0.545311
0.579134
0.613925
0.649679
0.686392
0.724060
0.762679
0.802243
0.842748
0.884191
0.926567
0.969871
1.014099
1.059248
1.105311
1.152286
1.200167
1.248950
1.298632
1.349207
1.400671
1.453020
1.506250
1.560356
1.615334
1.671179
1.727887
1.785454
1.843875
1.903147
1.963264
2.024222
2.086017
2.148645
2.212101
2.276381
2.341481
2.407395
2.474120
2.541652
2.609986
2.679118
2.749042
2.819756
2.891255
2.963533
3.036588
3.110414
3.185008
3.260364
3.336479
3.413348
3.490966
3.569330
3.648435
3.728277
3.808851
3.890153
3.972178
4.054923
4.138383
4.222553
4.307429
4.393008
4.479283
4.566252
4.653910
4.742251
4.831273
4.920971
5.011339
5.102375
5.194073
5.286430
5.379440
5.473100
5.567405
5.662351
5.757933
5.854147
5.950989
6.048455
6.146539
6.245238
6.344547
6.444462
6.544979
6.646093
6.747799
6.850094
6.952974
7.056433
7.160467
7.265072
7.370245
7.475979
7.582271
7.689117
7.796512
7.904453
8.012933
8.121950
8.231499
8.341575
8.452174
8.563291
8.674924
8.787066
8.899714
9.012863
9.126509
9.240648
9.355274
9.470385
9.585975
9.702041
9.818577
9.935579
10.053044
10.170966
10.289342
10.408167
10.527436
10.647145
10.767291
10.887868
11.008872
11.130299
11.252144
11.374404
11.497073
11.620148
11.743623
11.867496
11.991761
12.116413
12.241449
12.366865
12.492655
12.618816
12.745343
12.872232
12.999478
13.127078
13.255026
13.383318
13.511951
13.640919
13.770218
13.899845
14.029794
14.160061
14.290642
14.421532
14.552728
14.684224
14.816017
14.948102
15.080474
15.213130
15.346065
15.479274
15.612754
15.746500
15.880507
16.014771
16.149288
16.284054
16.419064
16.554313
16.689798
16.825514
16.961457
17.097621
17.234004
17.370601
17.507406
17.644417
17.781628
17.919035
18.056634
18.194421
18.332390
18.470539
18.608861
18.747354
18.886012
19.024832
19.163808
19.302937
19.442214
19.581635
19.721196
19.860892
20.000718
20.140671
20.280746
20.420939
20.561245
20.701660
20.842179
20.982799
21.123515
21.264322
21.405217
21.546194
21.687250
21.828379
21.969579
22.110844
22.252170
22.393553
22.534988
22.676471
22.817997
22.959563
23.101164
23.242795
23.384452
23.526131
23.667828
23.809537
23.951255
24.092978
24.234701
24.376419
24.518129
24.659825
24.801504
24.943162
25.084793
25.226393
25.367959
25.509486
25.650969
25.792404
25.933786
26.075112
26.216377
26.357577
26.498707
26.639762
26.780740
26.921634
27.062441
27.203157
27.343777
27.484296
27.624711
27.765017
27.905210
28.045285
28.185238
28.325064
28.464760
28.604321
28.743742
28.883019
29.022148
29.161125
29.299944
29.438602
29.577095
29.715418
29.853566
29.991535
30.129322
30.266921
30.404328
30.541539
30.678550
30.815355
30.951952
31.088335
31.224500
31.360442
31.496158
31.631643
31.766893
31.901902
32.036668
32.171185
32.305449
32.439457
32.573202
32.706682
32.839891
32.972826
33.105482
33.237855
33.369939
33.501732
33.633229
33.764424
33.895315
34.025896
34.156163
34.286112
34.415738
34.545037
34.674005
34.802638
34.930930
35.058878
35.186478
35.313724
35.440613
35.567140
35.693301
35.819091
35.944507
36.069543
36.194196
36.318460
36.442333
36.565809
36.688883
36.811552
36.933812
37.055657
37.177084
37.298089
37.418666
37.538811
37.658520
37.777790
37.896614
38.014990
38.132912
38.250377
38.367379
38.483915
38.599981
38.715571
38.830682
38.945309
39.059447
39.173093
39.286242
39.398890
39.511033
39.622665
39.733783
39.844382
39.954458
40.064006
40.173023
40.281504
40.389444
40.496839
40.603685
40.709977
40.815712
40.920884
41.025489
41.129524
41.232983
41.335862
41.438157
41.539864
41.640977
41.741494
41.841409
41.940718
42.039417
42.137502
42.234967
42.331809
42.428023
42.523605
42.618551
42.712856
42.806516
42.899526
42.991883
43.083581
43.174617
43.264986
43.354683
43.443705
43.532047
43.619704
43.706673
43.792949
43.878527
43.963403
44.047573
44.131033
44.213778
44.295803
44.377105
44.457679
44.537521
44.616626
44.694990
44.772609
44.849478
44.925592
45.000948
45.075542
45.149368
45.222423
45.294702
45.366200
45.436914
45.506839
45.575970
45.644304
45.711836
45.778561
45.844476
45.909575
45.973855
46.037311
46.099939
46.161734
46.222692
46.282809
46.342081
46.400502
46.458069
46.514777
46.570623
46.625600
46.679706
46.732936
46.785285
46.836749
46.887325
46.937006
46.985790
47.033671
47.080645
47.126709
47.171857
47.216085
47.259389
47.301765
47.343208
47.383714
47.423278
47.461896
47.499564
47.536277
47.572031
47.606822
47.640646
47.673497
47.705372
47.736266
47.766175
47.795094
47.823019
47.849947
47.875871
47.900789
47.924696
47.947586
47.969457
47.990303
48.010121
48.028906
48.046653
48.063358
48.079017
48.093626
48.107180
48.119674
48.131105
48.141468
48.150758
48.158972
48.166105
48.172153
48.177110
48.180974
48.183739
48.185401
48.185956
48.185725
48.185031
48.183877
48.182263
48.180190
48.177660
48.174674
48.171232
48.167337
48.162989
48.158190
48.152940
48.147241
48.141094
48.134500
48.127461
48.119977
48.112049
48.103680
48.094870
48.085619
48.075931
48.065804
48.055242
48.044244
48.032812
48.020948
48.008652
47.995926
47.982770
47.969187
47.955176
47.940740
47.925879
47.910595
47.894888
47.878761
47.862214
47.845248
47.827864
47.810064
47.791849
47.773220
47.754179
47.734725
47.714861
47.694588
47.673907
47.652818
47.631324
47.609425
47.587123
47.564419
47.541313
47.517808
47.493903
47.469602
47.444904
47.419810
47.394323
47.368442
47.342170
47.315508
47.288456
47.261015
47.233188
47.204975
47.176377
47.147396
47.118033
47.088288
47.058163
47.027660
46.996779
46.965521
46.933888
46.901881
46.869501
46.836749
46.803627
46.770135
46.736275
46.702048
46.667455
46.632497
46.597176
46.561492
46.525447
46.489042
46.452279
46.415157
46.377679
46.339846
46.301658
46.263117
46.224225
46.184982
46.145389
46.105448
46.065160
46.024526
45.983547
45.942225
45.900560
45.858553
45.816207
45.773522
45.730499
45.687139
45.643444
45.599415
45.555052
45.510358
45.465333
45.419979
45.374296
45.328286
45.281949
45.235288
45.188304
45.140996
45.093368
45.045419
44.997151
44.948566
44.899663
44.850446
44.800914
44.751069
44.700911
44.650444
44.599666
44.548580
44.497187
44.445487
44.393483
44.341175
44.288565
44.235653
44.182440
44.128929
44.075120
44.021014
43.966612
43.911917
43.856928
43.801647
43.746075
43.690213
43.634063
43.577626
43.520902
43.463893
43.406601
43.349026
43.291169
43.233033
43.174617
43.115923
43.056952
42.997706
42.938185
42.878391
42.818325
42.757988
42.697382
42.636506
42.575364
42.513955
42.452281
42.390343
42.328143
42.265681
42.202958
42.139977
42.076737
42.013241
41.949489
41.885482
41.821222
41.756710
41.691947
41.626934
41.561672
41.496164
41.430408
41.364408
41.298164
41.231677
41.164948
41.097979
41.030771
40.963324
40.895641
40.827722
40.759568
40.691181
40.622562
40.553712
40.484632
40.415323
40.345787
40.276024
40.206036
40.135824
40.065390
39.994733
39.923856
39.852760
39.781446
39.709915
39.638168
39.566206
39.494031
39.421644
39.349045
39.276237
39.203220
39.129995
39.056564
38.982927
38.909087
38.835044
38.760798
38.686353
38.611708
38.536865
38.461824
38.386588
38.311158
38.235533
38.159717
38.083709
38.007511
37.931125
37.854550
37.777790
37.700844
37.623714
37.546400
37.468906
37.391230
37.313375
37.235342
37.157132
37.078746
37.000185
36.921450
36.842543
36.763465
36.684217
36.604800
36.525215
36.445464
36.365547
36.285466
36.205222
36.124816
36.044250
35.963524
35.882640
35.801599
35.720401
35.639049
35.557543
35.475885
35.394075
35.312116
35.230007
35.147751
35.065348
34.982799
34.900107
34.817271
34.734293
34.651175
34.567917
34.484520
34.400987
34.317317
34.233513
34.149575
34.065504
33.981302
33.896969
33.812508
33.727919
33.643203
33.558362
33.473397
33.388308
33.303097
33.217766
33.132315
33.046745
32.961058
32.875255
32.789338
32.703306
32.617162
32.530906
32.444540
32.358065
32.271483
32.184793
32.097998
32.011098
31.924096
31.836991
31.749785
31.662480
31.575076
31.487575
31.399978
31.312286
31.224500
31.136621
31.048651
30.960590
30.872440
30.784203
30.695878
30.607468
30.518974
30.430396
30.341736
30.252996
30.164175
30.075276
29.986299
29.897247
29.808119
29.718917
29.629643
29.540297
29.450881
29.361395
29.271842
29.182221
29.092535
29.002785
28.912971
28.823095
28.733158
28.643161
28.553106
28.462993
28.372823
28.282599
28.192321
28.101990
28.011607
27.921174
27.830692
27.740161
27.649584
27.558961
27.468293
27.377582
27.286829
27.196035
27.105200
27.014327
26.923417
26.832470
26.741488
26.650472
26.559423
26.468343
26.377232
26.286092
26.194923
26.103728
26.012507
25.921261
25.829992
25.738700
25.647387
25.556055
25.464703
25.373334
25.281949
25.190548
25.099133
25.007706
24.916267
24.824817
24.733357
24.641890
24.550415
24.458935
24.367450
24.275961
24.184470
24.092978
24.001486
23.909995
23.818506
23.727021
23.635541
23.544066
23.452599
23.361140
23.269690
23.178250
23.086823
22.995408
22.904007
22.812622
22.721253
22.629902
22.538569
22.447256
22.355965
22.264695
22.173450
22.082228
21.991033
21.899865
21.808724
21.717613
21.626533
21.535484
21.444468
21.353486
21.262539
21.171629
21.080756
20.989922
20.899127
20.808374
20.717663
20.626995
20.536372
20.445795
20.355265
20.264782
20.174349
20.083966
19.993635
19.903357
19.813133
19.722964
19.632851
19.542795
19.452798
19.362861
19.272985
19.183171
19.093421
19.003735
18.914115
18.824561
18.735076
18.645659
18.556313
18.467039
18.377837
18.288710
18.199657
18.110680
18.021781
17.932961
17.844220
17.755560
17.666982
17.578488
17.490078
17.401753
17.313516
17.225366
17.137306
17.049335
16.961457
16.873670
16.785978
16.698381
16.610880
16.523476
16.436171
16.348965
16.261860
16.174858
16.087958
16.001163
15.914474
15.827891
15.741416
15.655050
15.568794
15.482650
15.396619
15.310701
15.224898
15.139211
15.053641
14.968190
14.882859
14.797648
14.712560
14.627594
14.542753
14.458037
14.373448
14.288987
14.204654
14.120452
14.036382
13.952444
13.868639
13.784969
13.701436
13.618040
13.534782
13.451663
13.368685
13.285850
13.203157
13.120609
13.038206
12.955949
12.873841
12.791881
12.710071
12.628413
12.546907
12.465555
12.384358
12.303316
12.222432
12.141706
12.061140
11.980734
11.900490
11.820409
11.740493
11.660741
11.581156
11.501739
11.422491
11.343413
11.264506
11.185772
11.107211
11.028825
10.950614
10.872581
10.794726
10.717051
10.639556
10.562243
10.485113
10.408167
10.331406
10.254832
10.178445
10.102247
10.026239
9.950423
9.874799
9.799368
9.724132
9.649092
9.574248
9.499603
9.425158
9.350913
9.276869
9.203029
9.129392
9.055961
8.982737
8.909719
8.836911
8.764313
8.691925
8.619750
8.547788
8.476041
8.404510
8.333196
8.262100
8.191223
8.120567
8.050132
7.979920
7.909932
7.840170
7.770633
7.701325
7.632244
7.563394
7.494775
7.426388
7.358234
7.290315
7.222632
7.155186
7.087977
7.021008
6.954280
6.887793
6.821548
6.755548
6.689793
6.624284
6.559022
6.494009
6.429246
6.364734
6.300474
6.236468
6.172716
6.109219
6.045980
5.982998
5.920276
5.857814
5.795613
5.733675
5.672001
5.610592
5.549450
5.488575
5.427968
5.367631
5.307565
5.247771
5.188250
5.129004
5.070033
5.011339
4.952924
4.894787
4.836930
4.779355
4.722063
4.665054
4.608331
4.551893
4.495743
4.439882
4.384310
4.329029
4.274040
4.219344
4.164942
4.110836
4.057027
4.003516
3.950304
3.897392
3.844781
3.792473
3.740469
3.688769
3.637376
3.586290
3.535513
3.485045
3.434888
3.385043
3.335511
3.286293
3.237391
3.188805
3.140537
3.092588
3.044960
2.997653
2.950668
2.904007
2.857671
2.811661
2.765978
2.720623
2.675598
2.630904
2.586541
2.542512
2.498817
2.455457
2.412434
2.369749
2.327403
2.285397
2.243732
2.202409
2.161430
2.120796
2.080508
2.040567
2.000975
1.961731
1.922839
1.884298
1.846111
1.808277
1.770799
1.733678
1.696914
1.660509
1.624464
1.588780
1.553459
1.518501
1.483908
1.449681
1.415821
1.382329
1.349207
1.316455
1.284075
1.252068
1.220435
1.189178
1.158296
1.127793
1.097668
1.067924
1.038560
1.009579
0.980981
0.952768
0.924941
0.897501
0.870449
0.843786
0.817514
0.791634
0.766146
0.741053
0.716355
0.692053
0.668149
0.644643
0.621538
0.598833
0.576531
0.554632
0.533138
0.512050
0.491368
0.471095
0.451231
0.431778
0.412736
0.394107
0.375892
0.358092
0.340709
0.323743
0.307195
0.291068
0.275361
0.260077
0.245216
0.230780
0.216770
0.203186
0.190030
0.177304
0.165008
0.153144
0.141712
0.130715
0.120152
0.110026
0.100337
0.091087
0.082276
0.073907
0.065980
0.058496
0.051456
0.044862
0.038715
0.033016
0.027767
0.022967
0.018619
0.014724
0.011283
0.008296
0.005766
0.003694
0.002079
0.000925
0.000231
0.000000
0.000000
0.000000
0.000000
0.000000
0.000000
0.000000
0.000000
0.000000
0.000000
0.000000
0.000000
0.000000
0.000000
0.000000
0.000000
0.000000
0.000000
0.000000
0.000000
0.000000
0.000000
0.000000
0.000000
0.000000
0.000000
0.000000
0.000000
0.000000
0.000000
0.000000
0.000000
0.000000
0.000000
0.000000
0.000000
0.000000
0.000000
0.000000
0.000000
0.000000
0.000000
0.000000
0.000000
0.000000
0.000000
0.000000
0.000000
0.000000
0.000000
0.000000
0.000000
0.000000
0.000000
0.000000
0.000000
0.000000
0.000000
0.000000
0.000000
0.000000
0.000000
0.000000
0.000000
0.000000
0.000000
0.000000
0.000000
0.000000
0.000000
0.000000
0.000000
0.000000
0.000000
0.000000
0.000000
0.000000
0.000000
0.000000
0.000000
0.000000
0.000000
0.000000
0.000000
0.000000
0.000000
0.000000
0.000000
0.000000
0.000000
0.000000
0.000000
0.000000
0.000000
0.000000
0.000000
0.000000
0.000000
0.000000
0.000000
0.000000
0.000000
0.000000
0.000000
0.000000
0.000000
0.000000
0.000000
0.000000
0.000000
0.000000
0.000000
0.000000
0.000000
0.000000
0.000000
0.000000
0.000000
0.000000
0.000000
0.000000
0.000000
0.000000
0.000000
0.000000
0.000000
0.000000
0.000000
0.000000
0.000000
0.000000
0.000000
0.000000
0.000000
0.000000
0.000000
0.000000
0.000000
0.000000
0.000000
0.000000
0.000000
0.000000
0.000000
0.000000
0.000000
0.000000
0.000000
0.000000
0.000000
0.000000
0.000000
0.000000
0.000000
0.000000
0.000000
0.000000
0.000000
0.000000
0.000000
0.000000
0.000000
0.000000
0.000000
0.000000
0.000000
0.000000
0.000000
0.000000
0.000000
0.000000
0.000000
0.000000
0.000000
0.000000
0.000000
0.000000
0.000000
0.000000
0.000000
0.000000
0.000000
0.000000
0.000000
0.000000
0.000000
0.000000
0.000000
0.000000
0.000000
0.000000
0.000000
0.000000
0.000000
0.000000
0.000000
0.000000
0.000000
0.000000
0.000000
0.000000
0.000000
0.000000
0.000000
0.000000
0.000000
0.000000
0.000000
0.000000
0.000000
0.000000
0.000000
0.000000
0.000000
0.000000
0.000000
0.000000
0.000000
0.000000
0.000000
0.000000
0.000000
0.000000
0.000000
0.000000
0.000000
0.000000
0.000000
0.000000
0.000000
0.000000
0.000000
0.000000
0.000000
0.000000
0.000000
0.000000
0.000000
0.000000
0.000000
0.000000
0.000000
0.000000
0.000000
0.000000
0.000000
0.000000
0.000000
0.000000
0.000000
0.000000
0.000000
0.000000
0.000000
0.000000
0.000000
0.000000
0.000000
0.000000
0.000000
0.000000
0.000000
0.000000
0.000000
0.000000
0.000000
0.000000
0.000000
0.000000
0.000000
0.000000
0.000000
0.000000
0.000000
0.000000
0.000000
0.000000
0.000000
0.000000
0.000000
0.000000
0.000000
0.000000
0.000000
0.000000
0.000000
0.000000
0.000000
0.000000
0.000000
0.000000
0.000000
0.000000
0.000000
0.000000
0.000000
0.000000
0.000000
0.000000
0.000000
0.000000
0.000000
0.000000
0.000000
0.000000
0.000000
0.000000
0.000000
0.000000
0.000000
0.000000
0.000000
0.000000
0.000000
0.000000
0.000000
0.000000
0.000000
0.000000
0.000000
0.000000
0.000000
0.000000
0.000000
0.000000
0.000000
0.000000
0.000000
0.000000
0.000000
0.000000
0.000000
0.000000
0.000000
0.000000
0.000000
0.000000
0.000000
0.000000
0.000000
0.000000
0.000000
0.000000
0.000000
0.000000
0.000000
0.000000
0.000000
0.000000
0.000000
0.000000
0.000000
0.000000
0.000000
0.000000
0.000000
0.000000
0.000000
0.000000
0.000000
0.000000
0.000000
0.000000
0.000000
0.000000
0.000000
0.000000
0.000000
0.000000
0.000000
0.000000
0.000253
0.001012
0.002275
0.004040
0.006308
0.009075
0.012342
0.016106
0.020367
0.025123
0.030373
0.036116
0.042350
0.049074
0.056287
0.063987
0.072173
0.080845
0.090000
0.099637
0.109756
0.120354
0.131431
0.142985
0.155015
0.167520
0.180498
0.193948
0.207869
0.222260
0.237119
0.252445
0.268236
0.284492
0.301211
0.318392
0.336033
0.354134
0.372693
0.391708
0.411179
0.431104
0.451481
0.472311
0.493590
0.515319
0.537495
0.560118
0.583186
0.606698
0.630653
0.655048
0.679884
0.705159
0.730871
0.757019
0.783602
0.810619
0.838068
0.865948
0.894258
0.922996
0.952162
0.981753
1.011769
1.042209
1.073070
1.104353
1.136055
1.168175
1.200712
1.233664
1.267031
1.300811
1.335003
1.369606
1.404617
1.440037
1.475863
1.512095
1.548731
1.585769
1.623210
1.661050
1.699289
1.737927
1.776960
1.816389
1.856211
1.896426
1.937033
1.978029
2.019414
2.061186
2.103345
2.145889
2.188816
2.232125
2.275815
2.319886
2.364334
2.409160
2.454362
2.499938
2.545887
2.592209
2.638901
2.685963
2.733393
2.781190
2.829353
2.877879
2.926769
2.976021
3.025633
3.075605
3.125934
3.176620
3.227661
3.279057
3.330805
3.382905
3.435355
3.488153
3.541300
3.594793
3.648631
3.702813
3.757337
3.812203
3.867408
3.922953
3.978834
4.035052
4.091605
4.148491
4.205709
4.263259
4.321138
4.379345
4.437880
4.496740
4.555926
4.615434
4.675264
4.735415
4.795886
4.856675
4.917780
4.979201
5.040937
5.102985
5.165346
5.228016
5.290996
5.354284
5.417878
5.481778
5.545982
5.610488
5.675296
5.740404
5.805811
5.871516
5.937517
6.003813
6.070403
6.137286
6.204459
6.271923
6.339675
6.407715
6.476040
6.544651
6.613545
6.682721
6.752178
6.821915
6.891930
6.962222
7.032791
7.103633
7.174749
7.246137
7.317796
7.389724
7.461920
7.534383
7.607111
7.680104
7.753360
7.826877
7.900655
7.974692
8.048987
8.123539
8.198346
8.273406
8.348720
8.424285
8.500100
8.576164
8.652476
8.729034
8.805837
8.882883
8.960173
9.037703
9.115473
9.193482
9.271728
9.350211
9.428928
9.507878
9.587061
9.666474
9.746118
9.825989
9.906088
9.986413
10.066961
10.147734
10.228728
10.309943
10.391377
10.473029
10.554898
10.636983
10.719282
10.801793
10.884517
10.967451
11.050594
11.133945
11.217502
11.301265
11.385231
11.469401
11.553771
11.638342
11.723112
11.808079
11.893243
11.978601
12.064153
12.149898
12.235834
12.321960
12.408274
12.494775
12.581463
12.668335
12.755391
12.842629
12.930048
13.017646
13.105423
13.193377
13.281507
13.369811
13.458288
13.546937
13.635757
13.724746
13.813903
13.903227
13.992716
14.082370
14.172187
14.262165
14.352303
14.442601
14.533056
14.623668
14.714436
14.805357
14.896430
14.987656
15.079031
15.170555
15.262227
15.354044
15.446007
15.538114
15.630363
15.722753
15.815283
15.907951
16.000757
16.093698
16.186775
16.279985
16.373326
16.466799
16.560402
16.654132
16.747990
16.841973
16.936081
17.030312
17.124665
17.219138
17.313731
17.408442
17.503269
17.598212
17.693270
17.788440
17.883721
17.979113
18.074614
18.170223
18.265938
18.361759
18.457683
18.553710
18.649839
18.746067
18.842394
18.938819
19.035340
19.131956
19.228665
19.325467
19.422360
19.519343
19.616414
19.713573
19.810817
19.908146
20.005559
20.103053
20.200629
20.298284
20.396017
20.493827
20.591713
20.689673
20.787707
20.885812
20.983988
21.082233
21.180546
21.278926
21.377371
21.475881
21.574453
21.673087
21.771781
21.870534
21.969345
22.068212
22.167135
22.266111
22.365140
22.464220
22.563351
22.662530
22.761756
22.861029
22.960347
23.059708
23.159112
23.258556
23.358041
23.457563
23.557123
23.656719
23.756350
23.856014
23.955710
24.055437
24.155193
24.254978
24.354790
24.454627
24.554488
24.654373
24.754279
24.854206
24.954153
25.054117
25.154098
25.254094
25.354104
25.454127
25.554162
25.654207
25.754261
25.854323
25.954391
26.054464
26.154541
26.254621
26.354702
26.454783
26.554863
26.654940
26.755013
26.855081
26.955143
27.055197
27.155242
27.255276
27.355300
27.455310
27.555306
27.655287
27.755251
27.855198
27.955124
28.055031
28.154916
28.254777
28.354614
28.454426
28.554210
28.653967
28.753694
28.853390
28.953054
29.052684
29.152280
29.251840
29.351363
29.450848
29.550292
29.649696
29.749057
29.848375
29.947647
30.046874
30.146053
30.245183
30.344264
30.443293
30.542269
30.641191
30.740059
30.838870
30.937623
31.036317
31.134951
31.233523
31.332032
31.430478
31.528858
31.627171
31.725416
31.823592
31.921697
32.019730
32.117691
32.215577
32.313387
32.411120
32.508775
32.606351
32.703845
32.801258
32.898587
32.995831
33.092990
33.190061
33.287044
33.383937
33.480739
33.577448
33.674064
33.770585
33.867010
33.963337
34.059565
34.155694
34.251721
34.347645
34.443466
34.539181
34.634790
34.730291
34.825683
34.920964
35.016134
35.111191
35.206134
35.300962
35.395673
35.490266
35.584739
35.679092
35.773323
35.867431
35.961414
36.055272
36.149002
36.242605
36.336077
36.429419
36.522629
36.615705
36.708647
36.801453
36.894121
36.986651
37.079041
37.171290
37.263397
37.355359
37.447177
37.538849
37.630373
37.721748
37.812973
37.904047
37.994968
38.085736
38.176347
38.266803
38.357101
38.447239
38.537217
38.627034
38.716688
38.806177
38.895501
38.984658
39.073647
39.162467
39.251116
39.339593
39.427897
39.516027
39.603981
39.691757
39.779356
39.866775
39.954013
40.041069
40.127941
40.214628
40.301130
40.387444
40.473570
40.559506
40.645251
40.730803
40.816161
40.901325
40.986292
41.071062
41.155633
41.240003
41.324173
41.408139
41.491902
41.575459
41.658810
41.741953
41.824887
41.907610
41.990122
42.072421
42.154506
42.236375
42.318027
42.399461
42.480676
42.561670
42.642442
42.722991
42.803316
42.883415
42.963286
43.042929
43.122343
43.201526
43.280476
43.359193
43.437676
43.515922
43.593931
43.671701
43.749231
43.826521
43.903567
43.980370
44.056928
44.133240
44.209304
44.285119
44.360684
44.435997
44.511058
44.585865
44.660417
44.734711
44.808749
44.882526
44.956044
45.029300
45.102293
45.175021
45.247484
45.319680
45.391608
45.463267
45.534655
45.605771
45.676613
45.747181
45.817474
45.887489
45.957226
46.026683
46.095859
46.164753
46.233364
46.301689
46.369729
46.437481
46.504945
46.572118
46.639001
46.705590
46.771887
46.837888
46.903592
46.968999
47.034108
47.098916
47.163422
47.227626
47.291526
47.355120
47.418408
47.481388
47.544058
47.606418
47.668467
47.730202
47.791624
47.852729
47.913518
47.973988
48.034140
48.093970
48.153478
48.212663
48.271524
48.330059
48.388266
48.446145
48.503695
48.560913
48.617799
48.674352
48.730570
48.786451
48.841996
48.897201
48.952067
49.006591
49.060773
49.114611
49.168104
49.221250
49.274049
49.326499
49.378599
49.430347
49.481743
49.532784
49.583470
49.633799
49.683771
49.733383
49.782635
49.831524
49.880051
49.928214
49.976011
50.023441
50.070503
50.117195
50.163517
50.209466
50.255042
50.300244
50.345070
50.389518
50.433588
50.477279
50.520588
50.563515
50.606059
50.648217
50.689990
50.731375
50.772371
50.812978
50.853193
50.893015
50.932444
50.971477
51.010114
51.048354
51.086194
51.123634
51.160673
51.197309
51.233541
51.269367
51.304786
51.339798
51.374401
51.408592
51.442373
51.475740
51.508692
51.541229
51.573349
51.605051
51.636333
51.667195
51.697634
51.727651
51.757242
51.786408
51.815146
51.843456
51.871336
51.898785
51.925802
51.952385
51.978533
52.004245
52.029520
52.054355
52.078751
52.102706
52.126218
52.149286
52.171908
52.194085
52.215813
52.237093
52.257922
52.278300
52.298225
52.317696
52.336711
52.355270
52.373371
52.391012
52.408193
52.424912
52.441168
52.456959
52.472285
52.487144
52.501534
52.515455
52.528906
52.541884
52.554388
52.566419
52.577973
52.589049
52.599648
52.609766
52.619404
52.628559
52.637230
52.645417
52.653117
52.660330
52.667054
52.673288
52.679031
52.684281
52.689037
52.693298
52.697062
52.700329
52.703096
52.705364
52.707129
52.708392
52.709151
52.709404
52.709072
52.708078
52.706423
52.704110
52.701141
52.697516
52.693239
52.688312
52.682735
52.676512
52.669643
52.662131
52.653979
52.645186
52.635757
52.625692
52.614994
52.603664
52.591705
52.579118
52.565905
52.552069
52.537610
52.522532
52.506835
52.490523
52.473596
52.456057
52.437907
52.419149
52.399785
52.379816
52.359244
52.338072
52.316300
52.293932
52.270969
52.247413
52.223266
52.198530
52.173206
52.147297
52.120805
52.093731
52.066078
52.037847
52.009040
51.979660
51.949708
51.919186
51.888095
51.856439
51.824219
51.791436
51.758093
51.724192
51.689734
51.654722
51.619157
51.583042
51.546378
51.509167
51.471411
51.433112
51.394272
51.354893
51.314977
51.274525
51.233541
51.192024
51.149979
51.107405
51.064306
51.020684
50.976539
50.931875
50.886693
50.840995
50.794782
50.748058
50.700823
50.653080
50.604831
50.556077
50.506821
50.457064
50.406808
50.356056
50.304809
50.253069
50.200837
50.148117
50.094910
50.041218
49.987042
49.932385
49.877248
49.821634
49.765544
49.708981
49.651946
49.594441
49.536469
49.478030
49.419128
49.359763
49.299938
49.239655
49.178915
49.117721
49.056075
48.993978
48.931433
48.868441
48.805004
48.741124
48.676803
48.612043
48.546847
48.481215
48.415150
48.348653
48.281727
48.214374
48.146595
48.078393
48.009769
47.940725
47.871264
47.801386
47.731095
47.660391
47.589278
47.517756
47.445828
47.373496
47.300761
47.227626
47.154092
47.080162
47.005837
46.931119
46.856010
46.780512
46.704627
46.628358
46.551705
46.474671
46.397257
46.319466
46.241300
46.162760
46.083849
46.004568
45.924919
45.844904
45.764525
45.683785
45.602684
45.521225
45.439411
45.357241
45.274720
45.191848
45.108627
45.025060
44.941148
44.856894
44.772299
44.687365
44.602094
44.516488
44.430548
44.344278
44.257678
44.170752
44.083499
43.995924
43.908026
43.819809
43.731275
43.642424
43.553260
43.463784
43.373998
43.283904
43.193503
43.102799
43.011792
42.920485
42.828879
42.736977
42.644780
42.552291
42.459511
42.366442
42.273086
42.179445
42.085521
41.991316
41.896832
41.802071
41.707034
41.611724
41.516143
41.420291
41.324173
41.227788
41.131140
41.034230
40.937060
40.839632
40.741948
40.644009
40.545819
40.447378
40.348689
40.249753
40.150573
40.051150
39.951487
39.851584
39.751445
39.651071
39.550465
39.449627
39.348560
39.247265
39.145746
39.044003
38.942039
38.839855
38.737453
38.634836
38.532006
38.428963
38.325711
38.222250
38.118584
38.014713
37.910641
37.806368
37.701897
37.597229
37.492367
37.387313
37.282067
37.176633
37.071013
36.965207
36.859219
36.753050
36.646701
36.540175
36.433475
36.326601
36.219555
36.112340
36.004958
35.897410
35.789698
35.681825
35.573792
35.465601
35.357254
35.248752
35.140099
35.031296
34.922344
34.813246
34.704004
34.594619
34.485094
34.375430
34.265629
34.155694
34.045625
33.935426
33.825098
33.714642
33.604062
33.493358
33.382533
33.271589
33.160527
33.049350
32.938059
32.826656
32.715144
32.603523
32.491797
32.379967
32.268035
32.156003
32.043872
31.931646
31.819325
31.706911
31.594407
31.481815
31.369135
31.256371
31.143525
31.030597
30.917591
30.804507
30.691349
30.578117
30.464814
30.351441
30.238002
30.124497
30.010928
29.897297
29.783607
29.669860
29.556056
29.442198
29.328289
29.214329
29.100322
28.986268
28.872170
28.758029
28.643848
28.529628
28.415372
28.301082
28.186758
28.072404
27.958021
27.843611
27.729175
27.614717
27.500238
27.385739
27.271223
27.156691
27.042147
26.927590
26.813024
26.698450
26.583871
26.469287
26.354702
26.240117
26.125533
26.010954
25.896380
25.781814
25.667257
25.552712
25.438181
25.323665
25.209166
25.094687
24.980229
24.865793
24.751383
24.637000
24.522646
24.408322
24.294032
24.179775
24.065556
23.951375
23.837234
23.723136
23.609082
23.495074
23.381115
23.267205
23.153348
23.039544
22.925796
22.812106
22.698476
22.584907
22.471402
22.357962
22.244590
22.131287
22.018055
21.904897
21.791813
21.678807
21.565879
21.453032
21.340268
21.227589
21.114997
21.002493
20.890079
20.777758
20.665532
20.553401
20.441369
20.329437
20.217607
20.105880
19.994260
19.882748
19.771345
19.660054
19.548877
19.437815
19.326871
19.216046
19.105342
18.994761
18.884306
18.773978
18.663778
18.553710
18.443775
18.333974
18.224310
18.114785
18.005400
17.896157
17.787059
17.678108
17.569305
17.460651
17.352150
17.243803
17.135612
17.027579
16.919706
16.811994
16.704446
16.597064
16.489849
16.382803
16.275929
16.169228
16.062703
15.956354
15.850185
15.744197
15.638391
15.532770
15.427336
15.322091
15.217037
15.112175
15.007507
14.903036
14.798763
14.694690
14.590820
14.487154
14.383693
14.280441
14.177398
14.074568
13.971950
13.869549
13.767365
13.665401
13.563658
13.462139
13.360844
13.259777
13.158939
13.058332
12.957958
12.857819
12.757917
12.658254
12.558831
12.459651
12.360715
12.262026
12.163585
12.065395
11.967456
11.869772
11.772344
11.675174
11.578264
11.481616
11.385231
11.289112
11.193261
11.097680
11.002370
10.907333
10.812572
10.718087
10.623882
10.529959
10.436318
10.342962
10.249893
10.157113
10.064624
9.972427
9.880525
9.788919
9.697612
9.606605
9.515901
9.425500
9.335406
9.245620
9.156144
9.066980
8.978129
8.889595
8.801378
8.713480
8.625905
8.538652
8.451725
8.365126
8.278855
8.192916
8.107310
8.022039
7.937105
7.852510
7.768255
7.684344
7.600777
7.517556
7.434684
7.352163
7.269993
7.188178
7.106720
7.025619
6.944878
6.864500
6.784485
6.704836
6.625555
6.546644
6.468104
6.389938
6.312147
6.234733
6.157699
6.081046
6.004776
5.928892
5.853394
5.778285
5.703567
5.629242
5.555312
5.481778
5.408643
5.335908
5.263576
5.191648
5.120126
5.049012
4.978309
4.908018
4.838140
4.768679
4.699635
4.631011
4.562809
4.495030
4.427677
4.360751
4.294254
4.228189
4.162557
4.097361
4.032601
3.968280
3.904400
3.840963
3.777971
3.715426
3.653329
3.591682
3.530489
3.469749
3.409466
3.349641
3.290276
3.231374
3.172935
3.114962
3.057458
3.000423
2.943859
2.887770
2.832156
2.777019
2.722362
2.668186
2.614494
2.561287
2.508566
2.456335
2.404595
2.353348
2.302596
2.252340
2.202583
2.153327
2.104573
2.056323
2.008580
1.961346
1.914621
1.868409
1.822711
1.777529
1.732864
1.688720
1.645097
1.601999
1.559425
1.517380
1.475863
1.434878
1.394427
1.354511
1.315132
1.276292
1.237993
1.200237
1.163026
1.126362
1.090246
1.054682
1.019669
0.985212
0.951310
0.917968
0.885185
0.852965
0.821308
0.790218
0.759696
0.729744
0.700363
0.671557
0.643326
0.615673
0.588599
0.562107
0.536198
0.510874
0.486138
0.461991
0.438435
0.415472
0.393104
0.371332
0.350160
0.329588
0.309619
0.290255
0.271497
0.253347
0.235808
0.218881
0.202569
0.186872
0.171794
0.157335
0.143499
0.130286
0.117699
0.105739
0.094410
0.083711
0.073647
0.064217
0.055425
0.047273
0.039761
0.032892
0.026669
0.021092
0.016164
0.011887
0.008263
0.005294
0.002981
0.001326
0.000332
0.000000
0.000000
0.000000
0.000000
0.000000
0.000000
0.000000
0.000000
0.000000
0.000000
0.000000
0.000000
0.000000
0.000000
0.000000
0.000000
0.000000
0.000000
0.000000
0.000000
0.000000
0.000000
0.000000
0.000000
0.000000
0.000000
0.000000
0.000000
0.000000
0.000000
0.000000
0.000000
0.000000
0.000000
0.000000
0.000000
0.000000
0.000000
0.000000
0.000000
0.000000
0.000000
0.000000
0.000000
0.000000
0.000000
0.000000
0.000000
0.000000
0.000000
0.000000
0.000000
0.000000
0.000000
0.000000
0.000000
0.000000
0.000000
0.000000
0.000000
0.000000
0.000000
0.000000
0.000000
0.000000
0.000000
0.000000
0.000000
0.000000
0.000000
0.000000
0.000000
0.000000
0.000000
0.000000
0.000000
0.000000
0.000000
0.000000
0.000000
0.000000
0.000000
0.000000
0.000000
0.000000
0.000000
0.000000
0.000000
0.000000
0.000000
0.000000
0.000000
0.000000
0.000000
0.000000
0.000000
0.000000
0.000000
0.000000
0.000000
0.000000
0.000000
0.000000
0.000000
0.000000
0.000000
0.000000
0.000000
0.000000
0.000000
0.000000
0.000000
0.000000
0.000000
0.000000
0.000000
0.000000
0.000000
0.000000
0.000000
0.000000
0.000000
0.000000
0.000000
0.000000
0.000000
0.000000
0.000000
0.000000
0.000000
0.000000
0.000000
0.000000
0.000000
0.000000
0.000000
0.000000
0.000000
0.000000
0.000000
0.000000
0.000000
0.000000
0.000000
0.000000
0.000000
0.000000
0.000000
0.000000
0.000000
0.000000
0.000000
0.000000
0.000000
0.000000
0.000000
0.000000
0.000000
0.000000
0.000000
0.000000
0.000000
0.000000
0.000000
0.000000
0.000000
0.000000
0.000000
0.000000
0.000000
0.000000
0.000000
0.000000
0.000000
0.000000
0.000000
0.000000
0.000000
0.000000
0.000000
0.000000
0.000000
0.000000
0.000000
0.000000
0.000000
0.000000
0.000000
0.000000
0.000000
0.000000
0.000000
0.000000
0.000000
0.000000
0.000000
0.000000
0.000000
0.000000
0.000000
0.000000
0.000000
0.000000
0.000000
0.000000
0.000000
0.000000
0.000000
0.000000
0.000000
0.000000
0.000000
0.000000
0.000000
0.000000
0.000000
0.000000
0.000000
0.000000
0.000000
0.000000
0.000000
0.000000
0.000000
0.000000
0.000000
0.000000
0.000000
0.000000
0.000000
0.000000
0.000000
0.000000
0.000000
0.000000
0.000000
0.000000
0.000000
0.000000
0.000000
0.000000
0.000000
0.000000
0.000000
0.000000
0.000000
0.000000
0.000000
0.000000
0.000000
0.000000
0.000000
0.000000
0.000000
0.000000
0.000000
0.000000
0.000000
0.000000
0.000000
0.000000
0.000000
0.000000
0.000000
0.000000
0.000000
0.000000
0.000000
0.000000
0.000000
0.000000
0.000000
0.000000
0.000000
0.000000
0.000000
0.000000
0.000000
0.000000
0.000000
0.000000
0.000000
0.000000
0.000000
0.000000
0.000000
0.000000
0.000000
0.000000
0.000000
0.000000
0.000000
0.000000
0.000000
0.000000
0.000000
0.000000
0.000000
0.000000
0.000000
0.000000
0.000000
0.000000
0.000000
0.000000
0.000000
0.000000
0.000000
0.000000
0.000000
0.000000
0.000000
0.000000
0.000000
0.000000
0.000000
0.000000
0.000000
0.000000
0.000000
0.000000
0.000000
0.000000
0.000000
0.000000
0.000000
0.000000
0.000000
0.000000
0.000000
0.000000
0.000000
0.000000
0.000000
0.000000
0.000000
0.000000
0.000000
0.000000
0.000000
0.000000
0.000000
0.000000
0.000000
0.000000
0.000000
0.000000
0.000000
0.000000
0.000000
0.000000
0.000000
0.000000
0.000000
0.000000
0.000000
0.000000
0.000000
0.000000
0.000000
0.000000
0.000000
0.000000
0.000000
0.000000
0.000000
0.000000
0.000000
0.000000
0.000000
0.000000
0.000000
0.000000
0.000000
0.000000
0.000000
0.000000
0.000000
0.000000
0.000000
0.000000
0.000000
0.000000
0.000000
0.000000
0.000000
0.000000
0.000000
0.000000
0.000000
0.000000
0.000000
0.000000
0.000000
0.000000
0.000000
0.000000
0.000000
0.000000
0.000000
0.000000
0.000000
0.000000
0.000000
0.000000
0.000000
0.000000
0.000000
0.000000
0.000000
0.000000
0.000000
0.000000
0.000000
0.000000
0.000000
0.000000
0.000000
0.000000
0.000000
0.000000
0.000000
0.000000
0.000000
0.000000
0.000000
0.000000
0.000000
0.000000
0.000000
0.000000
0.000000
0.000000
0.000000
0.000000
0.000000
0.000000
0.000000
0.000000
0.000000
0.000000
0.000000
0.000000
0.000000
0.000000
0.000000
0.000000
0.000000
0.000000
0.000000
0.000000
0.000000
0.000000
0.000000
0.000000
0.000000
0.000000
0.000000
0.000000
0.000000
0.000000
0.000000
0.000000
0.000000
0.000000
0.000000
0.000000
0.000000
0.000000
0.000000
0.000000
0.000000
0.000000
0.000000
0.000000
0.000000
0.000000
0.000000
0.000000
0.000000
0.000000
0.000000
0.000000
0.000000
0.000000
0.000000
0.000000
0.000000
0.000000
0.000000
0.000000
0.000000
0.000000
0.000000
0.000000
0.000000
0.000000
0.000000
0.000000
0.000000
0.000000
0.000000
0.000000
0.000000
0.000000
0.000000
0.000000
0.000000
0.000000
0.000000
0.000000
0.000000
0.000000
0.000000
0.000000
0.000000
0.000000
0.000000
0.000000
0.000000
0.000000
0.000000
0.000000
0.000000
0.000000
0.000000
0.000000
0.000000
0.000000
0.000000
0.000000
0.000000
0.000000
0.000000
0.000000
0.000000
0.000000
0.000000
0.000000
0.000000
0.000000
0.000000
0.000000
0.000000
0.000000
0.000000
0.000000
0.000000
0.000000
0.000000
0.000000
0.000000
0.000000
0.000000
0.000000
0.000000
0.000000
0.000000
0.000000
0.000000
0.000000
0.000000
0.000000
0.000000
0.000000
0.000000
0.000000
0.000000
0.000000
0.000000
0.000000
0.000000
0.000000
0.000000
0.000000
0.000000
0.000000
0.000000
0.000000
0.000000
0.000000
0.000000
0.000000
0.000000
0.000000
0.000000
0.000000
0.000000
0.000000
0.000000
0.000000
0.000000
0.000000
0.000000
0.000000
0.000000
0.000000
0.000000
0.000000
0.000000
0.000000
0.000000
0.000000
0.000000
0.000000
0.000000
0.000000
0.000000
0.000000
0.000000
0.000000
0.000000
0.000000
0.000000
0.000000
0.000000
0.000000
0.000000
0.000000
0.000000
0.000000
0.000000
0.000000
0.000000
0.000000
0.000000
0.000000
0.000000
0.000000
0.000000
0.000000
0.000000
0.000000
0.000000
0.000000
0.000000
0.000000
0.000000
0.000000
0.000000
0.000000
0.000000
0.000000
0.000000
0.000000
0.000000
0.000000
0.000000
0.000000
0.000000
0.000000
0.000000
0.000000
0.000000
0.000000
0.000000
0.000000
0.000000
0.000000
0.000000
0.000000
0.000000
0.000000
0.000000
0.000000
0.000000
0.000000
0.000000
0.000000
0.000000
0.000000
0.000000
0.000000
0.000000
0.000000
0.000000
0.000000
0.000000
0.000000
0.000000
0.000000
0.000000
0.000000
0.000000
0.000000
0.000000
0.000000
0.000000
0.000000
0.000000
0.000000
0.000000
0.000000
0.000000
0.000000
0.000000
0.000000
0.000000
0.000000
0.000000
0.000000
0.000000
0.000000
0.000000
0.000000
0.000000
0.000000
0.000000
0.000000
0.000000
0.000000
0.000000
0.000000
0.000000
0.000000
0.000000
0.000000
0.000000
0.000000
0.000000
0.000000
0.000000
0.000000
0.000000
0.000000
0.000000
0.000000
0.000000
0.000000
0.000000
0.000000
0.000000
0.000000
0.000000
0.000000
0.000000
0.000000
0.000000
0.000000
0.000000
0.000000
0.000000
0.000000
0.000000
0.000000
0.000000
0.000000
0.000000
0.000000
0.000000
0.000000
0.000000
0.000000
0.000000
0.000000
0.000000
0.000000
0.000000
0.000000
0.000000
0.000000
0.000000
0.000000
0.000000
0.000000
0.000000
0.000000
0.000000
0.000000
0.000000
0.000000
0.000000
0.000000
0.000000
0.000000
0.000000
0.000000
0.000000
0.000000
0.000000
0.000000
0.000000
0.000000
0.000000
0.000000
0.000000
0.000000
0.000000
0.000000
0.000000
0.000000
0.000000
0.000000
0.000000
0.000000
0.000000
0.000000
0.000000
0.000000
0.000000
0.000000
0.000000
0.000000
0.000000
0.000000
0.000000
0.000000
0.000000
0.000000
0.000000
0.000000
0.000000
0.000000
0.000000
0.000000
0.000000
0.000000
0.000000
0.000000
0.000000
0.000000
0.000000
0.000000
0.000000
0.000000
0.000000
0.000000
0.000000
0.000000
0.000000
0.000000
0.000520
0.002079
0.004674
0.008302
0.012961
0.018646
0.025355
0.033086
0.041836
0.051601
0.062379
0.074167
0.086961
0.100760
0.115560
0.131358
0.148152
0.165937
0.184713
0.204475
0.225221
0.246948
0.269653
0.293333
0.317986
0.343607
0.370195
0.397747
0.426259
0.455729
0.486154
0.517531
0.549857
0.583129
0.617344
0.652500
0.688593
0.725621
0.763581
0.802469
0.842283
0.883021
0.924678
0.967253
1.010742
1.055143
1.100452
1.146667
1.193784
1.241802
1.290716
1.340525
1.391224
1.442812
1.495286
1.548642
1.602878
1.657990
1.713976
1.770833
1.828559
1.887149
1.946602
2.006914
2.068082
2.130104
2.192977
2.256698
2.321263
2.386671
2.452917
2.520000
2.587916
2.656663
2.726237
2.796636
2.867856
2.939896
3.012751
3.086420
3.160898
3.236184
3.312275
3.389167
3.466857
3.545343
3.624622
3.704691
3.785547
3.867188
3.949609
4.032809
4.116784
4.201532
4.287049
4.373333
4.460381
4.548191
4.636758
4.726080
4.816155
4.906979
4.998550
5.090864
5.183919
5.277712
5.372240
5.467500
5.563489
5.660204
5.757643
5.855802
5.954679
6.054271
6.154574
6.255586
6.357305
6.459726
6.562848
6.666667
6.771180
6.876385
6.982279
7.088858
7.196120
7.304062
7.412682
7.521975
7.631940
7.742573
7.853872
7.965833
8.078454
8.191732
8.305664
8.420247
8.535478
8.651354
8.767873
8.885031
9.002826
9.121254
9.240313
9.360000
9.480312
9.601246
9.722799
9.844969
9.967752
10.091146
10.215147
10.339753
10.464961
10.590768
10.717171
10.844167
10.971753
11.099927
11.228685
11.358025
11.487943
11.618438
11.749505
11.881142
12.013346
12.146115
12.279445
12.413333
12.547777
12.682774
12.818320
12.954414
13.091051
13.228229
13.365946
13.504198
13.642982
13.782296
13.922136
14.062500
14.203385
14.344788
14.486706
14.629136
14.772075
14.915521
15.059470
15.203920
15.348867
15.494309
15.640244
15.786667
15.933576
16.080968
16.228841
16.377191
16.526016
16.675312
16.825078
16.975309
17.126003
17.277157
17.428768
17.580833
17.733350
17.886316
18.039727
18.193580
18.347874
18.502604
18.657769
18.813364
18.969388
19.125837
19.282709
19.440000
19.597708
19.755829
19.914362
20.073302
20.232648
20.392396
20.552543
20.713086
20.874023
21.035351
21.197066
21.359167
21.521649
21.684510
21.847747
22.011358
22.175339
22.339687
22.504401
22.669475
22.834909
23.000698
23.166841
23.333333
23.500173
23.667357
23.834883
24.002747
24.170947
24.339479
24.508342
24.677531
24.847044
25.016879
25.187032
25.357500
25.528281
25.699371
25.870768
26.042469
26.214471
26.386771
26.559366
26.732253
26.905430
27.078893
27.252639
27.426667
27.600972
27.775552
27.950404
28.125525
28.300912
28.476562
28.652473
28.828642
29.005065
29.181740
29.358664
29.535833
29.713246
29.890899
30.068789
30.246914
30.425270
30.603854
30.782664
30.961698
31.140951
31.320421
31.500105
31.680000
31.860104
32.040413
32.220924
32.401636
32.582544
32.763646
32.944939
33.126420
33.308086
33.489934
33.671962
33.854167
34.036545
34.219093
34.401810
34.584691
34.767735
34.950937
35.134296
35.317809
35.501471
35.685282
35.869237
36.053333
36.237569
36.421941
36.606445
36.791080
36.975842
37.160729
37.345737
37.530864
37.716107
37.901462
38.086928
38.272500
38.458177
38.643954
38.829831
39.015802
39.201867
39.388021
39.574262
39.760586
39.946992
40.133476
40.320035
40.506667
40.693368
40.880135
41.066966
41.253858
41.440808
41.627813
41.814869
42.001975
42.189128
42.376323
42.563560
42.750833
42.938142
43.125482
43.312852
43.500247
43.687665
43.875104
44.062560
44.250031
44.437513
44.625004
44.812500
45.000000
45.187500
45.374996
45.562487
45.749969
45.937440
46.124896
46.312335
46.499753
46.687148
46.874518
47.061858
47.249167
47.436440
47.623677
47.810872
47.998025
48.185131
48.372187
48.559192
48.746142
48.933034
49.119865
49.306632
49.493333
49.679965
49.866524
50.053008
50.239414
50.425738
50.611979
50.798133
50.984198
51.170169
51.356046
51.541823
51.727500
51.913072
52.098538
52.283893
52.469136
52.654263
52.839271
53.024158
53.208920
53.393555
53.578059
53.762431
53.946667
54.130763
54.314718
54.498529
54.682191
54.865704
55.049062
55.232265
55.415309
55.598190
55.780907
55.963455
56.145833
56.328038
56.510066
56.691914
56.873580
57.055061
57.236354
57.417456
57.598364
57.779076
57.959587
58.139896
58.320000
58.499895
58.679579
58.859049
59.038302
59.217336
59.396146
59.574730
59.753086
59.931211
60.109101
60.286754
60.464167
60.641336
60.818260
60.994935
61.171358
61.347527
61.523438
61.699088
61.874475
62.049596
62.224448
62.399028
62.573333
62.747361
62.921107
63.094570
63.267747
63.440634
63.613229
63.785529
63.957531
64.129232
64.300629
64.471719
64.642500
64.812968
64.983121
65.152956
65.322469
65.491658
65.660521
65.829053
65.997253
66.165117
66.332643
66.499827
66.666667
66.833159
66.999302
67.165091
67.330525
67.495599
67.660312
67.824661
67.988642
68.152253
68.315490
68.478351
68.640833
68.802934
68.964649
69.125977
69.286914
69.447457
69.607604
69.767352
69.926698
70.085638
70.244171
70.402292
70.560000
70.717291
70.874163
71.030612
71.186636
71.342231
71.497396
71.652126
71.806420
71.960273
72.113684
72.266650
72.419167
72.571232
72.722843
72.873997
73.024691
73.174922
73.324688
73.473984
73.622809
73.771159
73.919032
74.066424
74.213333
74.359756
74.505691
74.651133
74.796080
74.940530
75.084479
75.227925
75.370864
75.513294
75.655212
75.796615
75.937500
76.077864
76.217704
76.357018
76.495802
76.634054
76.771771
76.908949
77.045586
77.181680
77.317226
77.452223
77.586667
77.720555
77.853885
77.986654
78.118858
78.250495
78.381562
78.512057
78.641975
78.771315
78.900073
79.028247
79.155833
79.282829
79.409232
79.535039
79.660247
79.784853
79.908854
80.032248
80.155031
80.277201
80.398754
80.519688
80.640000
80.759687
80.878746
80.997174
81.114969
81.232127
81.348646
81.464522
81.579753
81.694336
81.808268
81.921546
82.034167
82.146128
82.257427
82.368060
82.478025
82.587318
82.695937
82.803880
82.911142
83.017721
83.123615
83.228820
83.333333
83.437152
83.540274
83.642695
83.744414
83.845426
83.945729
84.045321
84.144198
84.242357
84.339796
84.436511
84.532500
84.627760
84.722288
84.816081
84.909136
85.001450
85.093021
85.183845
85.273920
85.363242
85.451809
85.539619
85.626667
85.712951
85.798468
85.883216
85.967191
86.050391
86.132812
86.214453
86.295309
86.375378
86.454657
86.533143
86.610833
86.687725
86.763816
86.839102
86.913580
86.987249
87.060104
87.132144
87.203364
87.273763
87.343337
87.412084
87.480000
87.547083
87.613329
87.678737
87.743302
87.807023
87.869896
87.931918
87.993086
88.053398
88.112851
88.171441
88.229167
88.286024
88.342010
88.397122
88.451358
88.504714
88.557187
88.608776
88.659475
88.709284
88.758198
88.806216
88.853333
88.899548
88.944857
88.989258
89.032747
89.075322
89.116979
89.157717
89.197531
89.236419
89.274379
89.311407
89.347500
89.382656
89.416871
89.450143
89.482469
89.513846
89.544271
89.573741
89.602253
89.629805
89.656393
89.682014
89.706667
89.730347
89.753052
89.774779
89.795525
89.815287
89.834063
89.851848
89.868642
89.884440
89.899240
89.913039
89.925833
89.937621
89.948399
89.958164
89.966914
89.974645
89.981354
89.987039
89.991698
89.995326
89.997921
89.999480
90.000000
89.999840
89.999361
89.998562
89.997443
89.996005
89.994246
89.992168
89.989770
89.987053
89.984015
89.980657
89.976980
89.972982
89.968665
89.964027
89.959069
89.953791
89.948193
89.942274
89.936035
89.929476
89.922597
89.915397
89.907877
89.900036
89.891875
89.883393
89.874591
89.865468
89.856024
89.846260
89.836175
89.825769
89.815042
89.803995
89.792627
89.780937
89.768927
89.756596
89.743944
89.730971
89.717677
89.704061
89.690125
89.675867
89.661288
89.646387
89.631166
89.615623
89.599758
89.583573
89.567065
89.550237
89.533086
89.515614
89.497821
89.479706
89.461269
89.442510
89.423430
89.404028
89.384304
89.364258
89.343890
89.323201
89.302189
89.280855
89.259200
89.237222
89.214922
89.192300
89.169355
89.146089
89.122500
89.098589
89.074355
89.049799
89.024921
88.999720
88.974197
88.948351
88.922183
88.895692
88.868878
88.841742
88.814283
88.786501
88.758396
88.729969
88.701218
88.672145
88.642749
88.613030
88.582988
88.552622
88.521934
88.490922
88.459588
88.427930
88.395949
88.363645
88.331017
88.298066
88.264791
88.231194
88.197272
88.163027
88.128459
88.093567
88.058352
88.022812
87.986950
87.950763
87.914253
87.877419
87.840261
87.802779
87.764973
87.726843
87.688390
87.649612
87.610510
87.571084
87.531334
87.491260
87.450862
87.410139
87.369092
87.327721
87.286026
87.244006
87.201662
87.158993
87.115999
87.072682
87.029039
86.985072
86.940780
86.896164
86.851223
86.805957
86.760367
86.714451
86.668211
86.621646
86.574755
86.527540
86.480000
86.432135
86.383944
86.335429
86.286588
86.237423
86.187931
86.138115
86.087973
86.037506
85.986714
85.935596
85.884153
85.832384
85.780290
85.727870
85.675124
85.622053
85.568656
85.514934
85.460886
85.406512
85.351812
85.296786
85.241434
85.185756
85.129753
85.073423
85.016767
84.959786
84.902478
84.844844
84.786883
84.728597
84.669984
84.611045
84.551779
84.492188
84.432269
84.372024
84.311453
84.250555
84.189331
84.127780
84.065903
84.003698
83.941167
83.878309
83.815125
83.751613
83.687775
83.623610
83.559118
83.494299
83.429153
83.363680
83.297879
83.231752
83.165297
83.098516
83.031407
82.963970
82.896207
82.828116
82.759698
82.690952
82.621879
82.552478
82.482750
82.412694
82.342310
82.271599
82.200561
82.129194
82.057500
81.985478
81.913128
81.840450
81.767445
81.694111
81.620450
81.546460
81.472143
81.397497
81.322523
81.247221
81.171591
81.095632
81.019346
80.942731
80.865787
80.788516
80.710915
80.632987
80.554730
80.476144
80.397230
80.317987
80.238415
80.158515
80.078286
79.997729
79.916842
79.835627
79.754083
79.672210
79.590008
79.507477
79.424617
79.341428
79.257910
79.174063
79.089886
79.005380
78.920546
78.835381
78.749888
78.664065
78.577913
78.491432
78.404620
78.317480
78.230010
78.142210
78.054081
77.965622
77.876833
77.787715
77.698267
77.608489
77.518381
77.427944
77.337176
77.246079
77.154652
77.062894
76.970807
76.878389
76.785642
76.692564
76.599156
76.505418
76.411349
76.316950
76.222221
76.127161
76.031771
75.936051
75.840000
75.743619
75.646906
75.549864
75.452490
75.354786
75.256752
75.158386
75.059690
74.960663
74.861305
74.761616
74.661596
74.561246
74.460564
74.359551
74.258207
74.156532
74.054526
73.952188
73.849520
73.746520
73.643189
73.539526
73.435532
73.331207
73.226550
73.121561
73.016241
72.910590
72.804607
72.698292
72.591646
72.484668
72.377358
72.269716
72.161743
72.053438
71.944800
71.835831
71.726530
71.616897
71.506932
71.396634
71.286005
71.175043
71.063749
70.952123
70.840165
70.727874
70.615251
70.502296
70.389008
70.275388
70.161435
70.047150
69.932532
69.817582
69.702299
69.586683
69.470735
69.354453
69.237839
69.120893
69.003613
68.886000
68.768055
68.649776
68.531165
68.412220
68.292942
68.173332
68.053388
67.933110
67.812500
67.691556
67.570279
67.448669
67.326725
67.204448
67.081838
66.958894
66.835616
66.712005
66.588060
66.463782
66.339169
66.214224
66.088944
65.963331
65.837383
65.711102
65.584487
65.457538
65.330256
65.202639
65.074688
64.946403
64.817784
64.688830
64.559543
64.429921
64.299965
64.169675
64.039050
63.908091
63.776797
63.645170
63.513207
63.380910
63.248279
63.115312
62.982012
62.848376
62.714406
62.580101
62.445461
62.310487
62.175178
62.039533
61.903554
61.767240
61.630591
61.493606
61.356287
61.218632
61.080643
60.942318
60.803658
60.664662
60.525332
60.385666
60.245664
60.105328
59.964655
59.823648
59.682304
59.540625
59.398611
59.256261
59.113575
58.970554
58.827196
58.683503
58.539474
58.395110
58.250409
58.105373
57.960000
57.814291
57.668247
57.521866
57.375149
57.228096
57.080707
56.932982
56.784920
56.636522
56.487788
56.338717
56.189310
56.039566
55.889486
55.739070
55.588317
55.437227
55.285800
55.134037
54.981937
54.829501
54.676728
54.523617
54.370170
54.216386
54.062266
53.907808
53.753013
53.597881
53.442412
53.286606
53.130463
52.973982
52.817164
52.660009
52.502517
52.344687
52.186520
52.028016
51.869174
51.709995
51.550478
51.390623
51.230431
51.069902
50.909034
50.747829
50.586286
50.424406
50.262187
50.099631
49.936737
49.773504
49.609934
49.446026
49.281780
49.117196
48.952273
48.787013
48.621414
48.455477
48.289202
48.122588
47.955636
47.788346
47.620717
47.452750
47.284444
47.115800
46.946817
46.777496
46.607836
46.437837
46.267500
46.096824
45.925809
45.754455
45.582763
45.410731
45.238361
45.065651
44.892603
44.719215
44.545489
44.371423
44.197018
44.022274
43.847191
43.671768
43.496007
43.319905
43.143465
42.966685
42.789565
42.612106
42.434308
42.256170
42.077692
41.898875
41.719718
41.540221
41.360385
41.180209
40.999693
40.818837
40.637641
40.456105
40.274230
40.092014
39.909458
39.726562
39.543327
39.359750
39.175834
38.991578
38.806981
38.622044
38.436766
38.251148
38.065190
37.878892
37.692252
37.505273
37.317952
37.130291
36.942290
36.753948
36.565265
36.376241
36.186877
35.997171
35.807125
35.616738
35.426010
35.234941
35.043531
34.851780
34.659688
34.467255
34.274481
34.081365
33.887909
33.694111
33.499971
33.305490
33.110668
32.915505
32.720000
32.524154
32.327966
32.131436
31.934565
31.737352
31.539798
31.341902
31.143664
30.945084
30.746163
30.546899
30.347294
30.147347
29.947058
29.746426
29.545453
29.344138
29.142480
28.940481
28.738139
28.535455
28.332429
28.129060
27.925349
27.721296
27.516900
27.312162
27.107082
26.901658
26.695893
26.489784
26.283333
26.076540
25.869403
25.661924
25.454102
25.245938
25.037430
24.828579
24.619386
24.409850
24.199970
23.989748
23.779182
23.568274
23.357022
23.145427
22.933489
22.721207
22.508582
22.295614
22.082303
21.868648
21.654649
21.440308
21.225622
21.010593
20.795221
20.579504
20.363445
20.147041
19.930294
19.713203
19.495768
19.277989
19.059866
18.841400
18.622589
18.403434
18.183936
17.964093
17.743906
17.523375
17.302500
17.081281
16.859717
16.637809
16.415557
16.192960
15.970019
15.746733
15.523103
15.299129
15.074809
14.850146
14.625137
14.399784
14.174086
13.948044
13.721657
13.494924
13.267848
13.040426
12.812659
12.584547
12.356090
12.127288
11.898142
11.668649
11.438812
11.208630
10.978102
10.747229
10.516011
10.284448
10.052539
9.820285
9.587685
9.354740
9.121449
8.887813
8.653831
8.419503
8.184830
7.949811
7.714446
7.478736
7.242679
7.006277
6.769529
6.532435
6.294995
6.057209
5.819077
5.580599
5.341775
5.102605
4.863088
4.623225
4.383016
4.142461
3.901559
3.660311
3.418717
3.176776
2.934488
2.691854
2.448874
2.205547
1.961873
1.717853
1.473486
1.228772
0.983711
0.738304
0.492549
0.246448
0.000000
0.000000
0.000000
0.000000
0.000000
0.000000
0.000000
0.000000
0.000000
0.000000
0.000000
0.000000
0.000000
0.000000
0.000000
0.000000
0.000000
0.000000
0.000000
0.000000
0.000000
0.000000
0.000000
0.000000
0.000000
0.000000
0.000000
0.000000
0.000000
0.000000
0.000000
0.000000
0.000000
0.000000
0.000000
0.000000
0.000000
0.000000
0.000000
0.000000
0.000000
0.000000
0.000000
0.000000
0.000000
0.000000
0.000000
0.000000
0.000000
0.000000
0.000000
0.000000
0.000000
0.000000
0.000000
0.000000
0.000000
0.000000
0.000000
0.000000
0.000000
0.000000
0.000000
0.000000
0.000000
0.000000
0.000000
0.000000
0.000000
0.000000
0.000000
0.000000
0.000000
0.000000
0.000000
0.000000
0.000000
0.000000
0.000000
0.000000
0.000000
0.000000
0.000000
0.000000
0.000000
0.000000
0.000000
0.000000
0.000000
0.000000
0.000000
0.000000
0.000000
0.000000
0.000000
0.000000
0.000000
0.000000
0.000000
0.000000
0.000000
0.000000
0.000000
0.000000
0.000000
0.000000
0.000000
0.000000
0.000000
0.000000
0.000000
0.000000
0.000000
0.000000
0.000000
0.000000
0.000000
0.000000
0.000000
0.000000
0.000000
0.000000
0.000000
0.000000
0.000000
0.000000
0.000000
0.000000
0.000000
0.000000
0.000000
0.000000
0.000000
0.000000
0.000000
0.000000
0.000000
0.000000
0.000000
0.000000
0.000000
0.000000
0.000000
0.000000
0.000000
0.000000
0.000000
0.000000
0.000000
0.000000
0.000000
0.000000
0.000000
0.000000
0.000000
0.000000
0.000000
0.000000
0.000000
0.000000
0.000000
0.000000
0.000000
0.000000
0.000000
0.000000
0.000000
0.000000
0.000000
0.000000
0.000000
0.000000
0.000000
0.000000
0.000000
0.000000
0.000000
0.000000
0.000000
0.000000
0.000000
0.000000
0.000000
0.000000
0.000000
0.000000
0.000000
0.000000
0.000000
0.000000
0.000000
0.000000
0.000000
0.000000
0.000000
0.000000
0.000000
0.000000
0.000000
0.000000
0.000000
0.000000
0.000000
0.000000
0.000000
0.000000
0.000000
0.000000
0.000000
0.000000
0.000000
0.000000
0.000000
0.000000
0.000000
0.000000
0.000000
0.000000
0.000000
0.000000
0.000000
0.000000
0.000000
0.000000
0.000000
0.000000
0.000000
0.000000
0.000000
0.000000
0.000000
0.000000
0.000000
0.000000
0.000000
0.000000
0.000000
0.000000
0.000000
0.000000
0.000000
0.000000
0.000000
0.000000
0.000000
0.000000
0.000000
0.000000
0.000000
0.000000
0.000000
0.000000
0.000000
0.000000
0.000000
0.000000
0.000000
0.000000
0.000000
0.000000
0.000000
0.000000
0.000000
0.000000
0.000000
0.000000
0.000000
0.000000
0.000000
0.000000
0.000000
0.000000
0.000000
0.000000
0.000000
0.000000
0.000000
0.000000
0.000000
0.000000
0.000000
0.000000
0.000000
0.000000
0.000000
0.000000
0.000000
0.000000
0.000000
0.000000
0.000000
0.000000
0.000000
0.000000
0.000000
0.000000
0.000000
0.000000
0.000000
0.000000
0.000000
0.000000
0.000000
0.000000
0.000000
0.000000
0.000000
0.000000
0.000000
0.000000
0.000000
0.000000
0.000000
0.000000
0.000000
0.000000
0.000000
0.000000
0.000000
0.000000
0.000000
0.000000
0.000000
0.000000
0.000000
0.000000
0.000000
0.000000
0.000000
0.000000
0.000000
0.000000
0.000000
0.000000
0.000000
0.000000
0.000000
0.000000
0.000000
0.000000
0.000000
0.000000
0.000000
0.000000
0.000000
0.000000
0.000000
0.000000
0.000000
0.000000
0.000000
0.000000
0.000000
0.000000
0.000000
0.000000
0.000000
0.000000
0.000000
0.000000
0.000000
0.000000
0.000000
0.000000
0.000000
0.000000
0.000000
0.000000
0.000000
0.000000
0.000000
0.000000
0.000000
0.000000
0.000000
0.000000
0.000000
0.000000
0.000000
0.000000
0.000000
0.000000
0.000000
0.000000
0.000000
0.000000
0.000000
0.000000
0.000000
0.000000
0.000000
0.000000
0.000000
0.000000
0.000000
0.000000
0.000000
0.000000
0.000000
0.000000
0.000000
0.000000
0.000000
0.000000
0.000000
0.000000
0.000000
0.000000
0.000000
0.000000
0.000000
0.000000
0.000000
0.000000
0.000000
0.000000
0.000000
0.000000
0.000000
0.000000
0.000000
0.000000
0.000000
0.000000
0.000000
0.000000
0.000000
0.000000
0.000000
0.000000
0.000000
0.000000
0.000000
0.000000
0.000000
0.000000
0.000000
0.000000
0.000000
0.000000
0.000000
0.000000
0.000000
0.000000
0.000000
0.000000
0.000000
0.000000
0.000000
0.000000
0.000000
0.000000
0.000000
0.000000
0.000000
0.000000
0.000000
0.000000
0.000000
0.000000
0.000000
0.000000
0.000000
0.000000
0.000000
0.000000
0.000000
0.000000
0.000000
0.000000
0.000000
0.000000
0.000000
0.000000
0.000000
0.000000
0.000000
0.000000
0.000000
0.000000
0.000000
0.000000
0.000000
0.000000
0.000000
0.000000
0.000000
0.000000
0.000000
0.000000
0.000000
0.000000
0.000000
0.000000
0.000000
0.000000
0.000000
0.000000
0.000000
0.000000
0.000000
0.000000
0.000000
0.000000
0.000000
0.000000
0.000000
0.000000
0.000000
0.000000
0.000000
0.000000
0.000000
0.000000
0.000000
0.000000
0.000000
0.000000
0.000000
0.000000
0.000000
0.000000
0.000000
0.000000
0.000000
0.000000
0.000000
0.000000
0.000000
0.000000
0.000000
0.000000
0.000000
0.000000
0.000000
0.000000
0.000000
0.000000
0.000000
0.000000
0.000000
0.000000
0.000000
0.000000
0.000000
0.000000
0.000000
0.000000
0.000000
0.000000
0.000000
0.000000
0.000000
0.000000
0.000000
0.000000
0.000000
0.000000
0.000000
0.000000
0.000000
0.000000
0.000000
0.000000
0.000000
0.000000
0.000000
0.000000
0.000000
0.000000
0.000000
0.000000
0.000000
0.000000
0.000000
0.000000
0.000000
0.000000
0.000000
0.000000
0.000000
0.000000
0.000000
0.000000
0.000000
0.000000
0.000000
0.000000
0.000000
0.000000
0.000000
0.000000
0.000000
0.000000
0.000000
0.000000
0.000000
0.000000
0.000000
0.000000
0.000000
0.000000
0.000000
0.000000
0.000000
0.000000
0.000000
0.000000
0.000000
0.000000
0.000000
0.000000
0.000000
0.000000
0.000000
0.000000
0.000000
0.000000
0.000000
0.000000
0.000000
0.000000
0.000000
0.000000
0.000000
0.000000
0.000000
0.000000
0.000000
0.000000
0.000000
0.000000
0.000000
0.000000
0.000000
0.000000
0.000000
0.000000
0.000000
0.000000
0.000000
0.000000
0.000000
0.000000
0.000000
0.000000
0.000000
0.000000
0.000000
0.000000
0.000000
0.000000
0.000000
0.000000
0.000000
0.000000
0.000000
0.000000
0.000000
0.000000
0.000000
0.000000
0.000000
0.000000
0.000000
0.000000
0.000000
0.000000
0.000000
0.000000
0.000000
0.000000
0.000000
0.000000
0.000000
0.000000
0.000000
0.000000
0.000000
0.000000
0.000000
0.000000
0.000000
0.000000
0.000000
0.000000
0.000000
0.000000
0.000000
0.000000
0.000000
0.000000
0.000000
0.000000
0.000000
0.000000
0.000000
0.000000
0.000000
0.000000
0.000000
0.000000
0.000000
0.000000
0.000000
0.000000
0.000000
0.000000
0.000000
0.000000
0.000000
0.000000
0.000000
0.000000
0.000000
0.000000
0.000000
0.000000
0.000000
0.000000
0.000000
0.000000
0.000000
0.000000
0.000000
0.000000
0.000000
0.000000
0.000000
0.000000
0.000000
0.000000
0.000000
0.000000
0.000000
0.000000
0.000000
0.000000
0.000000
0.000000
0.000000
0.000000
0.000000
0.000000
0.000000
0.000000
0.000000
0.000000
0.000000
0.000000
0.000000
0.000000
0.000000
0.000000
0.000000
0.000000
0.000000
0.000000
0.000000
0.000000
0.000000
0.000000
0.000000
0.000000
0.000000
0.000000
0.000000
0.000000
0.000000
0.000000
0.000000
0.000000
0.000000
0.000000
0.000000
0.000000
0.000000
0.000000
0.000000
0.000000
0.000000
0.000000
0.000000
0.000000
0.000000
0.000000
0.000000
0.000000
0.000000
0.000000
0.000000
0.000000
0.000000
0.000000
0.000000
0.000000
0.000000
0.000000
0.000000
0.000000
0.000000
0.000000
0.000000
0.000000
0.000000
0.000000
0.000000
0.000000
0.000000
0.000000
0.000000
0.000000
0.000000
0.000000
0.000000
0.000000
0.000000
0.000000
0.000000
0.000000
0.000000
0.000000
0.000000
0.000000
0.000000
0.000000
0.000000
0.000000
0.000000
0.000000
0.000000
0.000000
0.000000
0.000000
0.000000
0.000000
0.000000
0.000000
0.000000
0.000000
0.000000
0.000000
0.000000
0.000000
0.000000
0.000000
0.000000
0.000000
0.000000
0.000000
0.000000
0.000000
0.000000
0.000000
0.000000
0.000000
0.000000
0.000000
0.000000
0.000000
0.000000
0.000000
0.000000
0.000000
0.000000
0.000000
0.000000
0.000000
0.000000
0.000000
0.000000
0.000000
0.000000
0.000000
0.000000
0.000000
0.000000
0.000000
0.000000
0.000000
0.000000
0.000000
0.000000
0.000000
0.000000
0.000000
0.000000
0.000000
0.000000
0.000000
0.000000
0.000000
0.000000
0.000000
0.000000
0.000000
0.000000
0.000000
0.000000
0.000000
0.000000
0.000000
0.000000
0.000000
0.000000
0.000000
0.000000
0.000000
0.000000
0.000000
0.000000
0.000000
0.000000
0.000000
0.000000
0.000000
0.000000
0.000000
0.000000
0.000000
0.000000
0.000000
0.000000
0.000000
0.000000
0.000000
0.000000
0.000000
0.000000
0.000000
0.000000
0.000000
0.000000
0.000000
0.000000
0.000000
0.000000
0.000000
0.000000
0.000000
0.000000
0.000000
0.000000
0.000000
0.000000
0.000000
0.000000
0.000000
0.000000
0.000000
0.000000
0.000000
0.000000
0.000000
0.000000
0.000000
0.000000
0.000000
0.000000
0.000000
0.000000
0.000000
0.000000
0.000000
0.000000
0.000000
0.000000
0.000000
0.000000
0.000000
0.000000
0.000000
0.000000
0.000000
0.000000
0.000000
0.000000
0.000000
0.000000
0.000000
0.000000
0.000000
0.000000
0.000000
0.000000
0.000000
0.000000
0.000000
0.000000
0.000000
0.000000
0.000000
0.000000
0.000000
0.000000
0.000000
0.000000
0.000000
0.000000
0.000000
0.000000
0.000000
0.000000
0.000000
0.000000
0.000000
0.000000
0.000000
0.000000
0.000000
0.000000
0.000000
0.000000
0.000000
0.000000
0.000000
0.000000
0.000000
0.000000
0.000000
0.000000
0.000000
0.000000
0.000000
0.000000
0.000000
0.000000
0.000000
0.000000
0.000000
0.000000
0.000000
0.000000
0.000000
0.000000
0.000000
0.000000
0.000000
0.000000
0.000000
0.000000
0.000000
0.000000
0.000000
0.000000
0.000000
0.000000
0.000000
0.000000
0.000000
0.000000
0.000000
0.000000
0.000000
0.000000
0.000000
0.000000
0.000000
0.000000
0.000000
0.000000
0.000000
0.000000
0.000000
0.000000
0.000000
0.000000
0.000000
0.000000
0.000000
0.000000
0.000000
0.000000
0.000000
0.000000
0.000000
0.000000
0.000000
0.000000
0.000000
0.000000
0.000000
0.000000
0.000000
0.000000
0.000000
0.000000
0.000000
0.000000
0.000000
0.000000
0.000000
0.000000
0.000000
0.000000
0.000000
0.000000
0.000000
0.000000
0.000000
0.000000
0.000000
0.000000
0.000000
0.000000
0.000000
0.000000
0.000000
0.000000
0.000000
0.000000
0.000000
0.000000
0.000000
0.000000
0.000000
0.000000
0.000000
0.000000
0.000000
0.000000
0.000000
0.000000
0.000000
0.000000
0.000000
0.000000
0.000000
0.000000
0.000000
0.000000
0.000000
0.000000
0.000000
0.000000
0.000000
0.000000
0.000000
0.000000
0.000000
0.000000
0.000000
0.000000
0.000000
0.000000
0.000000
0.000000
0.000000
0.000000
0.000000
0.000000
0.000000
0.000000
0.000000
0.000000
0.000000
0.000000
0.000000
0.000000
0.000000
0.000000
0.000000
0.000000
0.000000
0.000000
0.000000
0.000000
0.000000
0.000000
0.000000
0.000000
0.000000
0.000000
0.000000
0.000000
0.000000
0.000000
0.000000
0.000000
0.000000
0.000000
0.000000
0.000000
0.000000
0.000000
0.000000
0.000000
0.000000
0.000000
0.000000
0.000000
0.000000
0.000000
0.000000
0.000000
0.000000
0.000000
0.000000
0.000000
0.000000
0.000000
0.000000
0.000000
0.000000
0.000000
0.000000
0.000000
0.000000
0.000000
0.000000
0.000000
0.000000
0.000000
0.000000
0.000000
0.000000
0.000000
0.000000
0.000000
0.000000
0.000000
0.000000
0.000000
0.000000
0.000000
0.000000
0.000000
0.000000
0.000000
0.000000
0.000000
0.000000
0.000000
0.000000
0.000000
0.000000
0.000000
0.000000
0.000000
0.000000
0.000000
0.000000
0.000000
0.000000
0.000000
0.000000
0.000000
0.000000
0.000000
0.000000
0.000000
0.000000
0.000000
0.000000
0.000000
0.000000
0.000000
0.000000
0.000000
0.000000
0.000000
0.000000
0.000000
0.000000
0.000000
0.000000
0.000000
0.000000
0.000000
0.000000
0.000000
0.000000
0.000000
0.000000
0.000000
0.000000
0.000000
0.000000
0.000000
0.000000
0.000000
0.000000
0.000000
0.000000
0.000000
0.000000
0.000000
0.000000
0.000000
0.000000
0.000000
0.000000
0.000000
0.000000
0.000000
0.000000
0.000000
0.000000
0.000000
0.000000
0.000000
0.000000
0.000000
0.000000
0.000000
0.000000
0.000000
0.000000
0.000000
0.000000
0.000000
0.000000
0.000000
0.000000
0.000000
0.000000
0.000000
0.000000
0.000000
0.000000
0.000000
0.000000
0.000000
0.000000
0.000000
0.000000
0.000000
0.000000
0.000000
0.000000
0.000000
0.000000
0.000000
0.000000
0.000000
0.000000
0.000000
0.000000
0.000000
0.000000
0.000000
0.000000
0.000000
0.000000
0.000000
0.000000
0.000000
0.000000
0.000000
0.000000
0.000000
0.000000
0.000000
0.000000
0.000000
0.000000
0.000000
0.000000
0.000000
0.000000
0.000000
0.000000
0.000000
0.000000
0.000000
0.000000
0.000000
0.000000
0.000000
0.000000
0.000000
0.000000
0.000000
0.000000
0.000000
0.000000
0.000000
0.000000
0.000000
0.000000
0.000000
0.000000
0.000000
0.000000
0.000000
0.000000
0.000000
0.000000
0.000000
0.000000
0.000000
0.000000
0.000000
0.000000
0.000000
0.000000
0.000000
0.000000
0.000000
0.000000
0.000000
0.000000
0.000000
0.000000
0.000000
0.000000
0.000000
0.000000
0.000000
0.000000
0.000000
0.000000
0.000000
0.000000
0.000000
0.000000
0.000000
0.000000
0.000000
0.000000
0.000000
0.000000
0.000000
0.000000
0.000000
0.000000
0.000000
0.000000
0.000000
0.000000
0.000000
0.000000
0.000000
0.000000
0.000000
0.000000
0.000000
0.000000
0.000000
0.000000
0.000000
0.000000
0.000000
0.000000
0.000000
0.000000
0.000000
0.000000
0.000000
0.000000
0.000000
0.000000
0.000000
0.000000
0.000000
0.000000
0.000000
0.000000
0.000000
0.000000
0.000000
0.000000
0.000000
0.000000
0.000000
0.000000
0.000000
0.000000
0.000000
0.000000
0.000000
0.000000
0.000000
0.000000
0.000000
0.000000
0.000000
0.000000
0.000000
0.000000
0.000000
0.000000
0.000000
0.000000
0.000000
0.000000
0.000000
0.000000
0.000000
0.000000
0.000000
0.000000
0.000000
0.000000
0.000000
0.000000
0.000000
0.000000
0.000000
0.000000
0.000000
0.000000
0.000000
0.000000
0.000000
0.000000
0.000000
0.000000
0.000000
0.000000
0.000000
0.000000
0.000000
0.000000
0.000000
0.000000
0.000000
0.000000
0.000000
0.000000
0.000000
0.000000
0.000000
0.000000
0.000000
0.000000
0.000000
0.000000
0.000000
0.000000
0.000000
0.000000
0.000000
0.000000
0.000000
0.000000
0.000000
0.000000
0.000000
0.000000
0.000000
0.000000
0.000000
0.000000
0.000000
0.000000
0.000000
0.000000
0.000000
0.000000
0.000000
0.000000
0.000000
0.000000
0.000000
0.000000
0.000000
0.000000
0.000000
0.000000
0.000000
0.000000
0.000000
0.000000
0.000000
0.000000
0.000000
0.000000
0.000000
0.000000
0.000000
0.000000
0.000000
0.000000
0.000000
0.000000
0.000000
0.000000
0.000000
0.000000
0.000000
0.000000
0.000000
0.000000
0.000000
0.000000
0.000000
0.000000
0.000000
0.000000
0.000000
0.000000
0.000000
0.000000
0.000000
0.000000
0.000000
0.000000
0.000000
0.000000
0.000000
0.000000
0.000000
0.000000
0.000000
0.000000
0.000000
0.000000
0.000000
0.000000
0.000000
0.000000
0.000000
0.000000
0.000000
0.000000
0.000000
0.000000
0.000000
0.000000
0.000000
0.000000
0.000000
0.000000
0.000000
0.000000
0.000000
0.000000
0.000000
0.000000
0.000000
0.000000
0.000000
0.000000
0.000000
0.000000
0.000000
0.000000
0.000000
0.000000
0.000000
0.000000
0.000000
0.000000
0.000000
0.000000
0.000000
0.000000
0.000000
0.000000
0.000000
0.000000
0.000000
0.000000
0.000000
0.000000
0.000000
0.000000
0.000000
0.000000
0.000000
0.000000
0.000000
0.000000
0.000000
0.000000
0.000000
0.000000
0.000000
0.000000
0.000000
0.000000
0.000000
0.000000
0.000000
0.000000
0.000000
0.000000
0.000000
0.000000
0.000000
0.000000
0.000000
0.000000
0.000000
0.000000
0.000000
0.000000
0.000000
0.000000
0.000000
0.000000
0.000000
0.000000
0.000000
0.000000
0.000000
0.000000
0.000000
0.000000
0.000000
0.000000
0.000000
0.000000
0.000000
0.000000
0.000000
0.000000
0.000000
0.000000
0.000000
0.000000
0.000000
0.000000
0.000000
0.000000
0.000000
0.000000
0.000000
0.000000
0.000000
0.000000
0.000000
0.000000
0.000000
0.000000
0.000000
0.000000
0.000000
0.000000
0.000000
0.000000
0.000000
0.000000
0.000000
0.000000
0.000000
0.000000
0.000000
0.000000
0.000000
0.000000
0.000000
0.000000
0.000000
0.000000
0.000000
0.000000
0.000000
0.000000
0.000000
0.000000
0.000000
0.000000
0.000000
0.000000
0.000000
0.000000
0.000000
0.000000
0.000000
0.000000
0.000000
0.000000
0.000000
0.000000
0.000000
0.000000
0.000000
0.000000
0.000000
0.000000
0.000000
0.000000
0.000000
0.000000
0.000000
0.000000
0.000000
0.000000
0.000000
0.000000
0.000000
0.000000
0.000000
0.000000
0.000000
0.000000
0.000000
0.000000
0.000000
0.000000
0.000000
0.000000
0.000000
0.000000
0.000000
0.000000
0.000000
0.000000
0.000000
0.000000
0.000000
0.000000
0.000000
0.000000
0.000000
0.000000
0.000000
0.000000
0.000000
